timestamp_ms,ir_finger,ir_toe
0,1031,647
5,1057,647
10,1064,652
15,1080,649
20,1086,667
25,1100,665
30,1112,674
35,1124,689
40,1124,692
45,1134,698
50,1146,706
55,1150,710
60,1151,726
65,1166,729
70,1166,739
75,1178,747
80,1170,756
85,1182,764
90,1181,773
95,1188,786
100,1188,793
105,1190,800
110,1187,814
115,1191,817
120,1189,831
125,1190,835
130,1178,844
135,1186,851
140,1187,864
145,1176,873
150,1168,875
155,1175,877
160,1165,889
165,1162,894
170,1158,898
175,1162,906
180,1157,906
185,1156,908
190,1155,915
195,1142,919
200,1148,915
205,1137,923
210,1126,923
215,1127,921
220,1123,926
225,1117,924
230,1129,926
235,1114,926
240,1115,925
245,1109,925
250,1108,921
255,1101,918
260,1095,922
265,1099,921
270,1091,918
275,1092,911
280,1083,915
285,1097,913
290,1087,906
295,1085,905
300,1079,905
305,1074,900
310,1072,898
315,1076,896
320,1057,896
325,1067,887
330,1068,893
335,1059,887
340,1052,883
345,1055,885
350,1047,884
355,1046,881
360,1032,878
365,1022,876
370,1032,868
375,1016,870
380,1004,866
385,1003,863
390,994,863
395,981,864
400,981,865
405,970,860
410,959,858
415,954,857
420,945,855
425,939,854
430,919,855
435,924,850
440,905,846
445,903,845
450,888,842
455,884,842
460,861,837
465,848,839
470,844,834
475,835,830
480,830,823
485,829,819
490,817,813
495,795,812
500,793,811
505,791,802
510,770,800
515,777,792
520,770,784
525,762,781
530,756,771
535,753,766
540,752,762
545,746,761
550,745,748
555,749,738
560,752,739
565,743,727
570,755,721
575,755,717
580,758,709
585,762,697
590,758,691
595,769,693
600,785,686
605,794,677
610,793,667
615,808,665
620,818,661
625,826,658
630,844,651
635,853,643
640,863,646
645,872,638
650,884,638
655,904,634
660,916,627
665,924,625
670,942,631
675,944,629
680,967,628
685,978,633
690,990,633
695,997,634
700,1016,635
705,1028,646
710,1043,643
715,1051,648
720,1068,652
725,1083,658
730,1091,665
735,1111,671
740,1111,679
745,1119,683
750,1144,688
755,1139,701
760,1146,701
765,1140,720
770,1155,721
775,1164,734
780,1171,739
785,1165,746
790,1186,759
795,1185,766
800,1180,782
805,1191,786
810,1183,797
815,1193,807
820,1188,814
825,1189,820
830,1193,830
835,1182,835
840,1191,848
845,1185,851
850,1190,859
855,1180,867
860,1174,874
865,1165,885
870,1173,890
875,1173,894
880,1166,901
885,1162,904
890,1158,905
895,1145,908
900,1146,910
905,1147,920
910,1141,915
915,1126,923
920,1138,929
925,1125,924
930,1130,929
935,1126,926
940,1115,923
945,1114,932
950,1106,926
955,1108,922
960,1103,924
965,1109,925
970,1094,918
975,1104,920
980,1098,914
985,1096,914
990,1095,910
995,1081,909
1000,1094,906
1004,1083,906
1010,1091,902
1014,1081,898
1020,1076,900
1025,1078,893
1030,1069,897
1035,1068,895
1040,1066,892
1045,1056,882
1050,1057,883
1055,1057,878
1060,1056,879
1065,1043,878
1070,1052,874
1075,1035,874
1080,1031,867
1085,1024,867
1090,1011,871
1095,1003,864
1100,994,861
1105,981,864
1110,972,862
1115,976,858
1120,964,856
1125,953,852
1130,940,856
1135,939,852
1140,921,852
1145,914,849
1150,904,847
1155,892,845
1160,883,844
1165,875,844
1170,867,837
1175,852,837
1180,857,828
1185,832,825
1190,834,819
1195,816,817
1200,802,816
1205,813,812
1210,794,807
1215,786,802
1220,784,797
1225,769,797
1230,773,792
1235,767,780
1240,766,775
1245,749,771
1250,757,761
1255,758,756
1260,753,746
1265,744,738
1270,740,738
1275,744,733
1280,750,719
1285,749,720
1290,750,712
1295,765,703
1300,772,696
1305,764,683
1310,788,683
1315,787,675
1320,796,668
1325,807,671
1330,817,660
1335,817,662
1340,837,651
1345,845,642
1350,862,640
1355,870,644
1360,887,637
1365,893,633
1370,920,639
1375,916,636
1380,948,631
1385,948,634
1390,966,626
1395,978,631
1400,1000,638
1405,1012,631
1410,1023,633
1415,1039,642
1420,1039,645
1425,1059,648
1430,1073,655
1435,1079,655
1440,1088,663
1445,1103,673
1450,1119,678
1455,1122,686
1460,1125,690
1465,1132,696
1470,1152,706
1475,1155,715
1480,1164,727
1485,1167,734
1490,1159,741
1495,1170,752
1500,1180,764
1505,1182,767
1510,1182,782
1515,1182,787
1520,1185,797
1525,1188,810
1530,1187,814
1535,1188,822
1540,1188,827
1545,1188,842
1550,1190,845
1555,1182,856
1560,1177,867
1565,1173,871
1570,1178,875
1575,1174,884
1580,1161,892
1585,1170,903
1590,1166,895
1595,1156,901
1600,1162,912
1605,1156,911
1610,1149,913
1615,1133,916
1620,1138,925
1625,1136,924
1630,1127,926
1635,1132,931
1640,1114,928
1645,1124,927
1650,1127,931
1655,1122,925
1660,1109,928
1665,1124,928
1670,1105,917
1675,1097,920
1680,1088,920
1685,1092,926
1690,1097,919
1695,1089,919
1700,1102,915
1705,1096,914
1710,1086,910
1715,1088,905
1720,1083,905
1725,1082,900
1730,1077,899
1735,1074,898
1740,1060,890
1745,1057,892
1750,1069,885
1755,1067,888
1760,1052,881
1765,1050,883
1770,1041,880
1775,1039,880
1780,1038,878
1785,1028,870
1790,1028,872
1795,1014,866
1800,1010,867
1805,1010,866
1810,1000,865
1815,986,865
1820,982,864
1825,969,862
1830,960,858
1835,957,857
1840,948,860
1845,927,849
1850,922,853
1855,905,847
1860,904,845
1865,896,846
1870,887,840
1875,871,837
1880,865,838
1885,850,832
1890,844,834
1895,835,828
1900,818,823
1905,816,821
1910,809,815
1915,794,810
1920,802,807
1925,783,801
1930,781,798
1935,774,789
1940,760,782
1945,753,777
1950,762,779
1955,753,770
1960,749,763
1965,749,748
1970,743,748
1975,745,745
1980,749,733
1985,752,726
1990,752,719
1995,761,711
2000,760,703
2005,766,697
2009,764,690
2015,780,685
2020,779,681
2025,794,674
2029,794,676
2035,806,663
2040,821,663
2045,831,651
2050,826,652
2055,842,645
2060,859,643
2065,870,639
2070,883,640
2075,910,636
2080,912,632
2085,934,632
2090,943,633
2095,959,626
2100,966,627
2105,980,628
2110,1000,627
2115,1006,632
2120,1025,636
2125,1037,642
2130,1046,647
2135,1061,652
2140,1062,653
2145,1081,662
2150,1086,665
2155,1103,671
2160,1117,674
2165,1124,681
2170,1131,691
2175,1136,700
2180,1148,710
2185,1155,714
2190,1158,727
2195,1162,734
2200,1177,745
2205,1174,752
2210,1182,766
2215,1176,767
2220,1182,780
2225,1187,788
2230,1196,797
2235,1182,803
2240,1180,815
2245,1180,823
2250,1189,836
2255,1192,835
2260,1187,849
2265,1179,860
2270,1176,863
2275,1177,865
2280,1179,879
2285,1178,881
2290,1162,887
2295,1166,892
2300,1168,895
2305,1161,908
2310,1151,907
2315,1148,913
2320,1154,915
2325,1135,920
2330,1137,924
2335,1142,924
2340,1125,924
2345,1124,921
2350,1122,923
2355,1116,926
2360,1111,927
2365,1117,926
2370,1124,922
2375,1123,926
2380,1108,926
2385,1108,922
2390,1104,919
2395,1098,916
2400,1100,916
2405,1100,913
2410,1082,906
2415,1092,910
2420,1084,907
2425,1077,906
2430,1081,902
2435,1083,898
2440,1078,902
2445,1082,897
2450,1069,890
2455,1065,891
2460,1067,887
2465,1058,891
2470,1064,884
2475,1042,883
2480,1048,878
2485,1041,879
2490,1035,872
2495,1034,877
2500,1023,869
2505,1022,876
2510,1016,869
2515,997,870
2520,997,861
2525,987,864
2530,979,859
2535,964,861
2540,969,856
2545,952,857
2550,941,858
2555,946,853
2560,919,853
2565,915,844
2570,897,843
2575,902,847
2580,892,847
2585,878,841
2590,865,842
2595,857,834
2600,843,827
2605,838,830
2610,831,823
2615,813,820
2620,801,816
2625,801,810
2630,799,802
2635,784,797
2640,779,798
2645,768,791
2650,768,784
2655,772,779
2660,751,774
2665,757,764
2670,747,759
2675,751,756
2680,743,751
2685,748,740
2690,744,729
2695,744,727
2700,760,719
2705,751,717
2710,755,701
2715,772,704
2720,774,698
2725,777,688
2730,788,680
2735,786,676
2740,795,669
2745,814,664
2750,811,656
2755,832,654
2760,840,649
2765,844,645
2770,865,646
2775,872,641
2780,891,637
2785,902,637
2790,912,633
2795,924,632
2800,946,625
2805,953,630
2810,970,627
2815,980,628
2820,995,629
2825,1005,635
2830,1016,634
2835,1038,638
2840,1053,643
2845,1057,650
2850,1070,654
2855,1082,658
2860,1088,672
2865,1115,667
2870,1116,682
2875,1129,680
2880,1130,694
2885,1134,701
2890,1143,707
2895,1152,718
2900,1155,728
2905,1167,737
2910,1172,743
2915,1173,752
2920,1182,761
2925,1180,768
2930,1184,779
2935,1187,790
2940,1196,799
2945,1185,799
2950,1194,810
2955,1186,827
2960,1181,834
2965,1181,844
2970,1174,851
2975,1178,856
2980,1180,862
2985,1171,870
2990,1170,882
2995,1178,886
3000,1167,889
3005,1175,899
3010,1167,896
3015,1154,899
3020,1152,912
3025,1141,909
3030,1151,915
3035,1137,919
3040,1135,918
3045,1147,920
3050,1135,923
3055,1129,926
3060,1125,929
3065,1119,925
3070,1122,924
3075,1112,928
3080,1110,926
3085,1109,919
3090,1110,927
3095,1102,924
3100,1105,925
3105,1094,925
3110,1096,913
3115,1093,917
3120,1091,911
3125,1087,908
3130,1087,906
3135,1083,906
3140,1082,900
3145,1073,901
3150,1076,894
3155,1069,897
3160,1075,892
3165,1069,886
3170,1062,887
3175,1062,882
3180,1053,883
3185,1057,875
3190,1050,875
3195,1034,879
3200,1031,875
3205,1030,877
3210,1020,871
3215,1019,870
3220,1009,868
3225,1002,867
3230,994,866
3235,982,865
3240,978,857
3245,974,855
3250,963,855
3255,957,864
3260,939,849
3265,932,852
3270,928,854
3275,906,848
3280,902,845
3285,892,841
3290,884,842
3295,875,841
3300,854,833
3305,851,829
3310,842,831
3315,829,822
3320,825,823
3325,819,819
3330,803,815
3335,799,817
3340,790,810
3345,782,801
3350,776,796
3355,775,790
3360,758,779
3365,755,783
3370,761,771
3375,744,765
3380,749,764
3385,757,755
3390,745,753
3395,752,738
3400,739,733
3405,750,725
3410,743,721
3415,757,709
3420,757,712
3425,760,697
3430,770,689
3435,779,686
3440,789,682
3445,800,677
3450,802,668
3455,802,663
3460,823,665
3465,832,659
3470,846,648
3475,850,644
3480,872,641
3485,885,637
3490,885,633
3495,899,635
3500,914,632
3505,927,628
3510,943,631
3515,963,628
3520,970,629
3525,978,632
3530,1002,628
3535,1015,637
3540,1024,641
3545,1030,645
3550,1045,647
3555,1061,645
3560,1076,658
3565,1079,660
3570,1097,665
3575,1104,673
3580,1110,680
3585,1126,684
3590,1132,697
3595,1135,693
3600,1149,710
3605,1162,713
3610,1161,728
3615,1158,738
3620,1182,745
3625,1182,752
3630,1176,767
3635,1181,773
3640,1186,782
3645,1178,792
3650,1185,800
3655,1186,809
3660,1190,819
3665,1186,825
3670,1184,834
3675,1177,838
3680,1186,851
3685,1176,856
3690,1191,862
3695,1185,875
3700,1174,878
3705,1167,881
3710,1176,886
3715,1165,896
3720,1158,906
3725,1154,911
3730,1145,905
3735,1138,910
3740,1146,916
3745,1151,919
3750,1129,919
3755,1133,925
3760,1136,926
3765,1128,927
3770,1120,924
3775,1125,925
3780,1113,923
3785,1117,923
3790,1111,925
3795,1112,923
3800,1101,919
3805,1102,917
3810,1104,917
3815,1092,918
3820,1095,921
3825,1096,914
3830,1095,907
3835,1091,907
3840,1080,906
3845,1089,900
3850,1080,900
3855,1080,900
3860,1077,897
3865,1066,896
3870,1070,893
3875,1067,894
3880,1063,890
3885,1053,885
3890,1059,882
3895,1050,887
3900,1038,881
3905,1047,876
3910,1026,872
3915,1035,875
3920,1028,871
3925,1015,868
3930,1008,868
3935,1004,869
3940,996,866
3945,989,862
3950,978,862
3955,971,862
3960,974,850
3965,953,855
3970,948,852
3975,931,849
3980,927,853
3985,906,850
3990,907,846
3995,893,847
4000,877,841
4005,872,833
4010,864,838
4014,853,834
4019,831,829
4025,834,832
4030,818,821
4035,814,814
4040,806,817
4045,800,802
4050,787,804
4054,781,796
4059,772,792
4065,767,784
4070,765,782
4075,768,775
4080,752,773
4085,752,766
4090,758,761
4094,747,749
4100,743,749
4105,747,741
4110,755,734
4115,749,733
4120,756,721
4125,761,710
4130,764,703
4135,760,696
4140,777,695
4145,783,685
4150,775,680
4155,796,672
4160,803,669
4165,814,662
4170,820,655
4175,826,656
4180,839,647
4185,858,641
4190,861,639
4195,875,637
4200,890,638
4205,905,634
4210,920,632
4215,924,629
4220,941,627
4225,958,631
4230,974,629
4235,983,636
4240,996,631
4245,1010,636
4250,1030,640
4255,1029,642
4260,1049,642
4265,1067,648
4270,1077,650
4275,1079,655
4280,1098,664
4285,1111,669
4290,1113,677
4295,1123,685
4300,1131,692
4305,1142,699
4310,1150,707
4315,1157,718
4320,1161,726
4325,1167,739
4330,1172,746
4335,1169,757
4340,1178,765
4345,1186,776
4350,1178,787
4355,1179,788
4360,1193,804
4365,1186,813
4370,1194,823
4375,1182,827
4380,1180,831
4385,1190,839
4390,1184,849
4395,1175,859
4400,1177,866
4405,1171,873
4410,1172,878
4415,1172,881
4420,1168,888
4425,1153,896
4430,1165,901
4435,1148,905
4440,1159,911
4445,1150,914
4450,1149,915
4455,1140,918
4460,1135,923
4465,1143,918
4470,1119,926
4475,1136,925
4480,1126,930
4485,1115,920
4490,1120,932
4495,1113,925
4500,1107,923
4505,1111,926
4510,1106,921
4515,1100,921
4520,1098,918
4525,1100,919
4530,1095,915
4535,1095,910
4540,1086,909
4545,1090,905
4550,1086,908
4555,1087,902
4560,1090,904
4565,1084,898
4570,1075,899
4575,1070,897
4580,1071,891
4585,1060,891
4590,1065,891
4595,1055,879
4600,1058,885
4605,1054,878
4610,1027,879
4615,1038,881
4620,1030,876
4625,1030,871
4630,1024,866
4635,1012,871
4640,1006,867
4645,1001,869
4650,995,862
4655,982,861
4660,973,857
4665,958,861
4670,952,859
4675,948,856
4680,941,853
4685,936,850
4690,921,851
4695,901,851
4700,902,850
4705,900,844
4710,885,844
4715,877,836
4720,863,836
4725,856,830
4730,844,831
4735,836,827
4740,825,823
4745,807,821
4750,813,806
4755,793,808
4760,788,805
4765,771,796
4770,771,794
4775,767,795
4780,769,781
4785,771,782
4790,754,773
4795,752,762
4800,758,758
4805,749,752
4810,751,742
4815,742,739
4820,750,729
4825,752,724
4830,747,717
4835,759,708
4840,763,709
4845,757,699
4850,781,687
4855,774,687
4860,789,679
4865,791,674
4870,796,666
4875,811,664
4880,814,654
4885,841,658
4890,844,648
4895,854,648
4900,863,646
4905,879,640
4910,900,640
4915,900,631
4920,922,635
4925,934,628
4930,955,625
4935,961,629
4940,980,634
4945,993,631
4950,1002,639
4955,1012,636
4960,1028,639
4965,1041,643
4970,1049,649
4975,1057,648
4980,1068,655
4985,1074,657
4990,1094,662
4995,1106,675
5000,1118,683
5005,1132,690
5010,1129,695
5015,1144,700
5020,1152,706
5025,1153,717
5030,1160,729
5035,1163,743
5040,1177,740
5045,1177,760
5050,1178,760
5055,1190,776
5060,1187,781
5065,1182,789
5070,1187,800
5075,1192,809
5080,1192,824
5085,1183,829
5090,1182,840
5095,1181,846
5100,1167,861
5105,1182,858
5110,1182,867
5115,1168,875
5120,1177,880
5125,1170,885
5130,1173,886
5135,1166,895
5140,1154,901
5145,1160,906
5150,1151,909
5155,1143,911
5160,1142,921
5165,1143,922
5170,1138,921
5175,1143,925
5180,1129,917
5185,1127,928
5190,1124,932
5195,1121,929
5200,1118,931
5205,1114,929
5210,1114,925
5215,1108,924
5220,1092,925
5225,1111,920
5230,1097,919
5235,1097,916
5240,1094,917
5245,1090,911
5250,1084,915
5255,1089,914
5260,1083,900
5265,1081,908
5270,1079,894
5275,1083,901
5280,1082,896
5285,1077,895
5290,1065,889
5295,1064,887
5300,1060,888
5305,1061,884
5310,1063,886
5315,1042,880
5320,1036,874
5325,1032,874
5330,1033,870
5335,1028,870
5340,1020,865
5345,1005,867
5350,1009,866
5355,993,865
5360,997,865
5365,979,863
5370,972,858
5375,970,855
5380,959,857
5385,954,849
5390,940,851
5395,929,853
5400,916,850
5405,913,846
5410,899,848
5415,893,841
5420,877,841
5425,870,843
5430,857,840
5435,855,833
5440,838,821
5445,831,820
5450,827,822
5455,813,822
5460,804,808
5465,792,813
5470,784,802
5475,775,796
5480,769,797
5485,767,791
5490,757,781
5495,763,779
5500,750,769
5505,750,766
5510,755,764
5515,753,747
5520,753,746
5525,743,734
5530,755,732
5535,749,729
5540,753,715
5545,760,712
5550,769,707
5555,766,699
5560,777,686
5565,779,680
5570,785,679
5575,793,673
5580,806,664
5585,810,659
5590,822,653
5595,832,648
5600,847,645
5605,860,642
5610,870,638
5615,882,639
5620,895,634
5625,903,627
5630,930,631
5635,931,630
5640,943,627
5645,962,634
5650,977,634
5655,1003,634
5660,1006,635
5665,1027,636
5670,1036,640
5675,1036,643
5680,1049,644
5685,1069,651
5690,1080,657
5695,1095,664
5700,1089,666
5705,1104,673
5710,1121,681
5715,1125,683
5720,1130,692
5725,1148,697
5730,1143,708
5735,1163,718
5740,1166,733
5745,1173,732
5750,1170,744
5755,1174,753
5760,1175,766
5765,1182,773
5770,1184,781
5775,1178,793
5780,1195,803
5785,1189,813
5790,1186,821
5795,1183,820
5800,1178,841
5805,1189,842
5810,1186,851
5815,1196,863
5820,1186,870
5825,1180,873
5830,1162,883
5835,1167,888
5840,1172,892
5845,1163,896
5850,1161,903
5855,1158,904
5860,1156,916
5865,1151,915
5870,1143,917
5875,1136,918
5880,1135,919
5885,1131,924
5890,1131,924
5895,1121,926
5900,1127,930
5905,1123,925
5910,1121,926
5915,1112,930
5920,1105,927
5925,1103,924
5930,1106,924
5935,1097,921
5940,1109,923
5945,1096,917
5950,1105,923
5955,1095,913
5960,1090,913
5965,1091,911
5970,1081,902
5975,1085,901
5980,1079,904
5985,1071,898
5990,1078,900
5995,1067,900
6000,1069,892
6005,1064,886
6010,1053,894
6015,1056,883
6020,1060,879
6025,1045,879
6030,1034,878
6035,1037,874
6040,1034,872
6045,1025,872
6050,1010,872
6055,1025,868
6060,996,867
6065,989,866
6070,983,861
6075,982,855
6080,971,862
6085,969,862
6090,956,854
6095,941,853
6100,934,846
6105,929,852
6110,913,844
6115,911,850
6120,900,849
6125,880,842
6130,879,842
6135,864,838
6140,868,839
6145,848,830
6150,842,827
6155,833,826
6160,832,822
6165,808,817
6170,808,811
6175,805,810
6180,796,804
6185,776,802
6190,775,790
6195,772,782
6200,757,777
6205,758,784
6210,756,775
6215,754,763
6220,750,754
6225,750,747
6230,748,745
6235,746,735
6240,756,735
6245,756,725
6250,747,716
6255,768,715
6260,763,705
6265,771,700
6270,773,692
6275,784,681
6280,782,678
6285,789,673
6290,798,664
6295,822,664
6300,828,656
6305,837,647
6310,851,648
6315,855,640
6320,870,640
6325,872,636
6330,897,637
6335,910,634
6340,922,637
6345,935,630
6350,945,628
6355,961,626
6360,978,629
6365,988,636
6370,1001,629
6375,1013,637
6380,1020,641
6385,1038,639
6390,1050,649
6395,1076,650
6400,1080,654
6405,1099,662
6410,1100,668
6415,1118,679
6420,1120,685
6425,1125,692
6430,1133,695
6435,1141,706
6440,1148,710
6445,1162,724
6450,1167,732
6455,1174,737
6460,1181,749
6465,1181,758
6470,1180,763
6475,1186,772
6480,1192,783
6485,1189,792
6490,1195,802
6495,1196,817
6500,1188,820
6505,1191,827
6510,1187,838
6515,1181,839
6520,1177,860
6525,1186,861
6530,1178,862
6535,1182,878
6540,1173,881
6545,1177,890
6550,1165,893
6555,1167,895
6560,1154,907
6565,1156,909
6570,1151,911
6575,1147,916
6580,1134,911
6585,1146,914
6590,1134,925
6595,1133,926
6600,1137,926
6605,1118,924
6610,1122,929
6615,1120,923
6620,1110,924
6625,1110,923
6630,1111,926
6635,1100,923
6640,1106,920
6645,1099,917
6650,1105,918
6655,1093,917
6660,1093,920
6665,1096,914
6670,1081,912
6675,1086,906
6680,1082,910
6685,1089,903
6690,1083,899
6695,1078,897
6700,1075,897
6705,1076,893
6710,1070,893
6715,1061,891
6720,1059,884
6725,1050,885
6730,1050,874
6735,1048,884
6740,1048,881
6745,1038,879
6750,1032,873
6755,1017,872
6760,1020,873
6765,1021,868
6770,1000,863
6775,984,868
6780,996,868
6785,984,860
6790,976,858
6795,964,859
6800,946,855
6805,962,858
6810,938,857
6815,925,848
6820,922,850
6825,907,848
6830,902,847
6835,885,839
6840,873,840
6845,862,836
6850,855,835
6855,845,830
6860,833,830
6865,811,822
6870,826,820
6875,821,816
6880,802,808
6885,787,805
6890,787,802
6895,775,801
6900,772,795
6905,775,785
6910,760,782
6915,765,773
6920,755,766
6925,751,762
6930,747,759
6935,748,747
6940,742,737
6945,740,734
6950,746,728
6955,754,720
6960,744,722
6965,754,710
6970,753,698
6975,769,695
6980,769,691
6985,775,687
6990,787,679
6995,800,671
7000,805,664
7005,812,658
7010,813,654
7015,837,652
7020,841,648
7025,860,642
7030,871,641
7035,886,636
7040,899,640
7045,913,633
7050,935,626
7055,940,631
7060,956,630
7065,962,634
7070,979,630
7075,989,632
7080,1000,635
7085,1021,636
7090,1035,643
7095,1047,640
7100,1053,646
7105,1068,653
7110,1073,658
7115,1094,659
7120,1107,667
7125,1112,676
7130,1118,683
7135,1138,684
7140,1129,702
7145,1146,705
7150,1154,712
7155,1164,723
7160,1162,727
7165,1170,738
7170,1171,755
7175,1167,755
7180,1174,768
7185,1184,776
7190,1187,790
7195,1184,798
7200,1186,802
7205,1189,811
7210,1195,826
7215,1186,833
7220,1182,840
7225,1186,846
7230,1177,851
7235,1174,861
7240,1180,869
7245,1190,877
7250,1168,882
7255,1170,891
7260,1164,890
7265,1162,899
7270,1157,899
7275,1160,903
7280,1140,913
7285,1145,915
7290,1139,917
7295,1133,924
7300,1136,924
7305,1134,919
7310,1131,926
7315,1131,926
7320,1128,929
7325,1121,925
7330,1122,930
7335,1113,923
7340,1121,927
7345,1106,928
7350,1104,927
7355,1110,921
7360,1095,921
7365,1094,913
7370,1092,914
7375,1098,914
7380,1082,912
7385,1079,912
7390,1085,907
7395,1077,902
7400,1084,892
7405,1080,896
7410,1071,892
7415,1063,893
7420,1068,891
7425,1066,883
7430,1061,886
7435,1056,884
7440,1049,878
7445,1041,874
7450,1043,884
7455,1043,876
7460,1038,879
7465,1025,876
7470,1019,870
7475,1001,867
7480,1007,867
7485,1004,867
7490,989,855
7495,980,861
7500,971,865
7505,957,855
7510,958,858
7515,943,858
7520,944,849
7525,920,847
7530,923,854
7535,902,844
7540,899,847
7545,880,845
7550,873,843
7555,872,840
7560,850,834
7565,844,828
7570,839,832
7575,823,823
7580,824,818
7585,805,817
7590,800,811
7595,800,808
7600,788,802
7605,779,803
7610,784,797
7615,764,787
7620,765,779
7625,760,782
7630,760,766
7635,747,767
7640,751,757
7645,750,746
7650,747,743
7655,753,734
7660,753,732
7665,756,715
7670,753,713
7675,749,706
7680,763,699
7685,762,693
7690,766,688
7695,778,683
7700,788,675
7705,791,662
7710,805,664
7715,813,662
7720,821,655
7725,839,654
7730,849,647
7735,867,639
7740,870,639
7745,885,635
7750,896,632
7755,910,632
7760,923,634
7765,939,628
7770,954,625
7775,971,631
7780,970,626
7785,992,636
7790,1003,638
7795,1010,633
7800,1025,640
7805,1040,644
7810,1056,645
7815,1071,652
7820,1084,656
7825,1097,665
7830,1107,673
7835,1116,678
7840,1119,685
7845,1133,699
7850,1141,698
7855,1144,708
7860,1158,710
7865,1159,722
7870,1160,732
7875,1160,746
7880,1164,753
7885,1182,757
7890,1185,770
7895,1184,779
7900,1188,792
7905,1193,801
7910,1188,805
7915,1190,810
7920,1188,822
7925,1194,828
7930,1183,834
7935,1197,846
7940,1178,857
7945,1178,862
7950,1173,868
7955,1186,875
7960,1170,886
7965,1179,891
7970,1163,894
7975,1151,900
7980,1157,904
7985,1154,902
7990,1150,907
7995,1145,915
8000,1138,917
8005,1137,924
8010,1134,924
8015,1137,924
8020,1129,923
8025,1135,930
8029,1122,926
8035,1125,928
8039,1110,927
8045,1109,923
8050,1104,922
8055,1106,926
8060,1107,923
8064,1107,922
8070,1108,919
8074,1090,922
8080,1093,916
8085,1099,917
8090,1085,913
8095,1081,902
8100,1086,905
8105,1081,902
8109,1085,907
8115,1074,897
8119,1084,893
8125,1075,893
8130,1062,892
8135,1070,892
8140,1055,882
8145,1056,888
8150,1045,881
8154,1054,878
8160,1042,877
8164,1023,876
8170,1030,875
8175,1022,871
8180,1011,872
8185,1003,871
8189,1009,867
8195,994,864
8200,984,859
8205,983,860
8210,969,869
8215,954,858
8220,952,857
8225,947,852
8230,925,854
8235,934,849
8240,919,853
8245,903,847
8250,895,844
8255,888,844
8260,876,837
8265,867,836
8270,870,834
8275,845,835
8280,826,828
8285,832,826
8290,817,820
8295,811,814
8300,796,813
8305,800,804
8310,788,802
8315,773,800
8320,776,789
8325,765,791
8330,756,780
8335,757,775
8340,763,770
8345,751,761
8350,757,754
8355,740,751
8360,749,739
8365,742,735
8370,746,728
8375,748,720
8380,752,714
8385,768,709
8390,762,701
8395,764,698
8400,772,690
8405,785,679
8410,793,671
8415,797,674
8420,806,662
8425,811,662
8430,827,651
8435,833,652
8440,848,645
8445,861,642
8450,867,642
8455,889,634
8460,905,636
8465,923,625
8470,918,635
8475,940,630
8480,947,632
8485,964,630
8490,981,631
8495,985,627
8500,1008,635
8505,1015,636
8510,1046,633
8515,1045,647
8520,1059,644
8525,1061,658
8530,1076,664
8535,1095,664
8540,1106,673
8545,1109,680
8550,1126,685
8555,1135,692
8560,1141,697
8565,1144,707
8570,1153,715
8575,1161,725
8580,1166,731
8585,1168,737
8590,1174,751
8595,1174,757
8600,1183,769
8605,1185,779
8610,1176,786
8615,1183,798
8620,1182,804
8625,1187,811
8630,1189,821
8635,1183,834
8640,1184,840
8645,1185,849
8650,1179,863
8655,1172,863
8660,1177,873
8665,1170,876
8670,1173,884
8675,1170,885
8680,1173,895
8685,1161,903
8690,1154,902
8695,1157,915
8700,1149,908
8705,1147,916
8710,1138,920
8715,1138,918
8720,1135,924
8725,1129,928
8730,1123,924
8735,1120,926
8740,1118,924
8745,1118,930
8750,1121,924
8755,1110,925
8760,1111,927
8765,1111,924
8770,1098,914
8775,1106,918
8780,1088,922
8785,1098,920
8790,1101,918
8795,1095,912
8800,1086,906
8805,1077,904
8810,1091,902
8815,1078,904
8820,1079,905
8825,1076,898
8830,1079,895
8835,1071,897
8840,1072,887
8845,1059,887
8850,1062,886
8855,1058,880
8860,1057,880
8865,1044,879
8870,1038,881
8875,1033,877
8880,1026,871
8885,1026,876
8890,1019,871
8895,999,868
8900,996,870
8905,998,861
8910,988,858
8915,984,864
8920,980,855
8925,966,862
8930,952,858
8935,942,857
8940,933,859
8945,928,849
8950,912,850
8955,901,851
8960,890,848
8965,890,841
8970,886,843
8975,864,834
8980,857,833
8985,841,829
8990,835,827
8995,827,824
9000,817,818
9005,802,814
9010,799,810
9015,787,806
9020,786,805
9025,775,801
9030,774,790
9035,772,788
9040,766,781
9045,766,774
9050,755,764
9055,754,757
9060,757,756
9065,746,746
9070,750,741
9075,746,736
9080,752,731
9085,744,720
9090,759,713
9095,763,706
9100,763,705
9105,775,693
9110,776,689
9115,792,680
9120,796,673
9125,803,674
9130,804,665
9135,820,659
9140,828,650
9145,834,648
9150,856,651
9155,868,643
9160,870,639
9165,886,636
9170,913,635
9175,908,631
9180,929,630
9185,945,634
9190,949,631
9195,971,628
9200,976,632
9205,989,638
9210,1008,635
9215,1017,638
9220,1033,636
9225,1048,646
9230,1067,646
9235,1063,659
9240,1083,659
9245,1092,662
9250,1099,676
9255,1103,679
9260,1130,685
9265,1134,687
9270,1145,702
9275,1148,708
9280,1152,708
9285,1161,730
9290,1174,734
9295,1171,742
9300,1182,752
9305,1188,763
9310,1175,773
9315,1186,779
9320,1188,793
9325,1186,803
9330,1192,809
9335,1185,814
9340,1194,827
9345,1195,834
9350,1189,839
9355,1184,843
9360,1180,858
9365,1180,868
9370,1176,868
9375,1180,876
9380,1168,882
9385,1174,886
9390,1165,893
9395,1158,900
9400,1152,911
9405,1153,911
9410,1147,914
9415,1153,915
9420,1145,919
9425,1149,924
9430,1133,917
9435,1122,924
9440,1122,924
9445,1121,920
9450,1118,929
9455,1115,929
9460,1113,930
9465,1116,926
9470,1115,922
9475,1108,920
9480,1104,926
9485,1106,920
9490,1096,924
9495,1095,914
9500,1092,914
9505,1093,917
9510,1084,910
9515,1084,905
9520,1078,909
9525,1075,902
9530,1076,899
9535,1074,900
9540,1077,895
9545,1070,892
9550,1062,889
9555,1061,885
9560,1065,885
9565,1051,883
9570,1053,881
9575,1045,878
9580,1041,872
9585,1034,875
9590,1027,877
9595,1028,875
9600,1013,867
9605,1017,864
9610,997,872
9615,987,865
9620,990,860
9625,984,859
9630,963,854
9635,956,856
9640,966,857
9645,940,853
9650,936,855
9655,925,849
9660,916,847
9665,900,851
9670,895,843
9675,889,839
9680,879,840
9685,873,836
9690,857,834
9695,847,830
9700,831,827
9705,831,831
9710,811,819
9715,805,817
9720,798,809
9725,796,805
9730,785,807
9735,776,789
9740,765,788
9745,764,785
9750,755,776
9755,752,776
9760,756,775
9765,752,760
9770,743,757
9775,744,747
9780,752,743
9785,750,737
9790,744,731
9795,750,720
9800,760,709
9805,770,710
9810,756,704
9815,780,693
9820,777,684
9825,771,687
9830,782,673
9835,795,665
9840,807,661
9845,814,659
9850,837,656
9855,847,648
9860,845,646
9865,857,642
9870,870,635
9875,883,635
9880,905,629
9885,917,634
9890,930,632
9895,938,630
9900,960,630
9905,970,636
9910,975,633
9915,997,632
9920,1016,632
9925,1027,638
9930,1045,642
9935,1035,648
9940,1063,650
9945,1072,656
9950,1087,666
9955,1095,666
9960,1105,669
9965,1119,679
9970,1120,690
9975,1131,696
9980,1132,704
9985,1148,709
9990,1153,718
9995,1170,729
10000,1169,736
10005,1171,743
10010,1178,752
10015,1176,757
10020,1183,772
10025,1177,785
10030,1186,790
10035,1183,799
10040,1196,808
10045,1193,819
10050,1183,823
10055,1183,834
10060,1196,841
10065,1184,851
10070,1177,859
10075,1184,866
10080,1167,872
10085,1176,877
10090,1169,878
10095,1172,888
10100,1158,898
10105,1157,903
10110,1163,906
10115,1149,914
10120,1152,910
10125,1147,916
10130,1145,920
10135,1143,918
10140,1130,919
10145,1122,921
10150,1121,927
10155,1122,924
10160,1120,923
10165,1116,929
10170,1112,922
10175,1104,928
10180,1103,927
10185,1104,921
10190,1106,925
10195,1104,918
10200,1097,922
10205,1093,916
10210,1099,915
10215,1088,909
10220,1094,907
10225,1088,909
10230,1085,905
10235,1085,902
10240,1071,898
10245,1078,899
10250,1069,890
10255,1076,893
10260,1072,888
10265,1072,885
10270,1058,889
10275,1054,887
10280,1054,880
10285,1044,881
10290,1028,876
10295,1034,882
10300,1034,872
10305,1020,872
10310,1013,873
10315,1011,870
10320,995,868
10325,997,862
10330,993,866
10335,977,863
10340,963,859
10345,955,860
10350,947,852
10355,938,862
10360,927,851
10365,927,851
10370,909,844
10375,895,849
10380,894,847
10385,883,839
10390,877,839
10395,868,835
10400,848,829
10405,850,827
10410,841,828
10415,813,824
10420,818,817
10425,820,814
10430,789,809
10435,796,806
10440,778,800
10445,780,798
10450,767,789
10455,759,784
10460,767,776
10465,754,775
10470,750,770
10475,746,763
10480,751,752
10485,745,748
10490,758,741
10495,750,736
10500,751,722
10505,752,717
10510,750,710
10515,765,704
10520,755,698
10525,769,692
10530,773,688
10535,778,685
10540,799,676
10545,791,671
10550,805,662
10555,818,659
10560,837,650
10565,843,650
10570,851,652
10575,871,645
10580,885,640
10585,886,633
10590,906,633
10595,908,630
10600,924,631
10605,937,624
10610,953,630
10615,967,629
10620,986,633
10625,998,636
10630,1011,639
10635,1020,637
10640,1030,640
10645,1046,647
10650,1067,645
10655,1080,650
10660,1085,660
10665,1090,663
10670,1104,675
10675,1118,679
10680,1124,685
10685,1136,694
10690,1136,697
10695,1152,706
10700,1151,717
10705,1162,725
10710,1166,732
10715,1168,747
10720,1179,751
10725,1178,765
10730,1188,773
10735,1186,781
10740,1171,792
10745,1185,800
10750,1185,805
10755,1189,817
10760,1196,824
10765,1189,831
10770,1184,838
10775,1183,848
10780,1171,859
10785,1176,866
10790,1177,875
10795,1168,882
10800,1175,892
10805,1163,891
10810,1168,896
10815,1163,900
10820,1154,905
10825,1149,913
10830,1151,908
10835,1138,917
10840,1140,916
10845,1144,919
10850,1136,924
10855,1130,922
10860,1131,926
10865,1110,922
10870,1120,922
10875,1114,926
10880,1110,928
10885,1111,924
10890,1104,924
10895,1095,921
10900,1097,924
10905,1101,917
10910,1095,917
10915,1091,915
10920,1097,912
10925,1096,913
10930,1090,909
10935,1088,912
10940,1082,902
10945,1078,902
10950,1079,903
10955,1075,899
10960,1074,900
10965,1066,893
10970,1068,889
10975,1063,889
10980,1058,885
10985,1055,887
10990,1049,882
10995,1043,878
11000,1043,877
11005,1042,873
11010,1030,875
11015,1025,866
11020,1014,870
11025,1008,865
11030,1005,865
11035,995,865
11040,986,860
11045,972,857
11050,963,861
11055,966,857
11060,960,851
11065,945,850
11070,925,849
11075,922,851
11080,908,850
11085,907,841
11090,892,840
11095,889,847
11100,866,838
11105,862,836
11110,856,832
11115,843,835
11120,830,819
11125,823,822
11130,809,816
11135,808,814
11140,802,807
11145,797,807
11150,780,800
11155,778,794
11160,771,787
11165,766,784
11170,763,777
11175,759,771
11180,751,764
11185,741,762
11190,757,755
11195,748,748
11200,753,734
11205,743,726
11210,756,720
11215,745,719
11220,752,708
11225,757,705
11230,755,696
11235,764,691
11240,782,688
11245,783,678
11250,786,671
11255,801,667
11260,811,664
11265,819,655
11270,824,648
11275,844,652
11280,851,644
11285,871,638
11290,886,641
11295,891,633
11300,912,629
11305,920,627
11310,932,629
11315,946,631
11320,965,627
11325,977,631
11330,979,630
11335,1005,636
11340,1015,639
11345,1031,632
11350,1041,641
11355,1049,643
11360,1054,656
11365,1072,656
11370,1080,663
11375,1102,667
11380,1104,669
11385,1118,684
11390,1129,690
11395,1130,691
11400,1147,701
11405,1154,710
11410,1164,722
11415,1154,731
11420,1158,736
11425,1174,738
11430,1166,758
11435,1192,761
11440,1181,777
11445,1187,778
11450,1180,791
11455,1185,803
11460,1187,808
11465,1189,814
11470,1193,831
11475,1193,839
11480,1189,845
11485,1181,856
11490,1179,860
11495,1180,862
11500,1167,874
11505,1180,881
11510,1170,883
11515,1159,893
11520,1167,895
11525,1157,904
11530,1159,905
11535,1160,911
11540,1154,915
11545,1145,917
11550,1145,924
11555,1134,919
11560,1136,920
11565,1124,924
11570,1132,924
11575,1125,923
11580,1125,928
11585,1116,923
11590,1110,927
11595,1114,926
11600,1110,928
11605,1108,923
11610,1102,926
11615,1097,918
11620,1092,918
11625,1091,918
11630,1087,915
11635,1084,913
11640,1090,908
11645,1079,907
11650,1079,904
11655,1080,904
11660,1081,901
11665,1070,902
11670,1072,899
11675,1066,896
11680,1064,889
11685,1054,884
11690,1059,884
11695,1067,881
11700,1051,876
11705,1050,879
11710,1032,874
11715,1031,875
11720,1033,875
11725,1020,873
11730,1022,869
11735,1001,869
11740,996,865
11745,988,863
11750,988,862
11755,978,857
11760,968,865
11765,954,857
11770,957,852
11775,938,849
11780,934,848
11785,921,849
11790,904,847
11795,897,847
11800,887,845
11805,888,837
11810,872,841
11815,861,837
11820,849,835
11825,838,832
11830,827,831
11835,811,823
11840,810,813
11845,805,817
11850,793,805
11855,783,803
11860,784,805
11865,778,791
11870,764,788
11875,766,784
11880,764,780
11885,749,770
11890,754,762
11895,747,761
11900,758,750
11905,752,749
11910,744,737
11915,749,734
11920,753,723
11925,754,718
11930,760,716
11935,749,706
11940,769,697
11945,770,697
11950,782,683
11955,788,686
11960,787,673
11965,805,666
11970,816,654
11975,827,660
11980,833,655
11985,838,651
11990,859,644
11995,872,643
12000,882,635
12005,888,636
12010,904,638
12015,928,629
12020,919,626
12025,947,633
12030,956,626
12035,977,628
12040,985,635
12045,1002,634
12050,1016,633
12055,1028,642
12060,1042,643
12065,1060,651
12070,1064,652
12075,1076,662
12080,1085,666
12085,1096,674
12090,1117,673
12095,1119,682
12100,1127,688
12105,1143,694
12110,1144,704
12115,1152,710
12120,1151,722
12125,1157,733
12130,1165,742
12135,1173,748
12140,1172,755
12145,1185,764
12150,1180,775
12155,1176,783
12160,1189,792
12165,1188,802
12170,1189,808
12175,1181,823
12180,1186,829
12185,1191,836
12190,1187,846
12195,1185,853
12200,1179,858
12205,1181,867
12210,1181,877
12215,1164,880
12220,1172,890
12225,1169,891
12230,1169,894
12235,1161,898
12240,1146,904
12245,1154,906
12250,1140,913
12255,1150,920
12260,1130,922
12265,1129,916
12270,1128,925
12275,1133,922
12280,1120,922
12285,1123,929
12290,1119,928
12295,1123,922
12300,1117,923
12305,1111,922
12310,1112,925
12315,1105,925
12320,1111,922
12325,1100,922
12330,1088,918
12335,1093,914
12340,1097,913
12345,1092,908
12350,1081,907
12355,1080,906
12360,1089,906
12365,1077,901
12370,1076,898
12375,1075,900
12380,1068,892
12385,1065,894
12390,1059,887
12395,1059,886
12400,1055,886
12405,1059,882
12410,1045,880
12415,1047,878
12420,1031,883
12425,1031,873
12430,1029,876
12435,1016,871
12440,1021,865
12445,1005,866
12450,999,862
12455,998,863
12460,988,862
12465,973,868
12470,980,857
12475,960,855
12480,952,858
12485,935,859
12490,927,852
12495,920,846
12500,910,845
12505,899,840
12510,891,845
12515,881,841
12520,863,841
12525,851,833
12530,853,833
12535,837,828
12540,826,824
12545,826,820
12550,809,813
12555,802,816
12560,791,806
12565,789,809
12570,780,801
12575,771,791
12580,775,789
12585,761,779
12590,757,773
12595,754,766
12600,757,764
12605,744,759
12610,748,751
12615,744,742
12620,746,739
12625,732,734
12630,752,724
12635,752,713
12640,761,709
12645,773,704
12650,768,695
12655,777,689
12660,783,683
12665,793,682
12670,790,672
12675,811,669
12680,816,661
12685,818,656
12690,836,651
12695,845,651
12700,858,642
12705,867,639
12710,873,639
12715,898,637
12720,897,633
12725,917,628
12730,935,630
12735,944,627
12740,957,636
12745,979,633
12750,996,632
12755,997,633
12760,1011,634
12765,1039,642
12770,1044,639
12775,1055,645
12780,1069,651
12785,1078,657
12790,1082,663
12795,1104,672
12800,1119,670
12805,1118,682
12810,1124,687
12815,1131,691
12820,1147,705
12825,1160,710
12830,1148,719
12835,1169,728
12840,1161,739
12845,1177,751
12850,1181,757
12855,1176,761
12860,1194,775
12865,1186,784
12870,1184,795
12875,1190,803
12880,1182,815
12885,1190,820
12890,1186,825
12895,1192,837
12900,1191,848
12905,1180,853
12910,1181,860
12915,1180,868
12920,1172,875
12925,1166,878
12930,1175,885
12935,1160,888
12940,1154,898
12945,1166,902
12950,1159,905
12955,1143,908
12960,1151,913
12965,1155,917
12970,1144,925
12975,1141,921
12980,1131,924
12985,1136,930
12990,1122,926
12995,1127,925
13000,1112,928
13005,1110,925
13010,1112,930
13015,1107,926
13020,1104,922
13025,1103,925
13030,1100,918
13035,1107,921
13040,1105,918
13045,1088,918
13050,1086,913
13055,1096,909
13060,1084,904
13065,1087,901
13070,1087,903
13075,1080,897
13080,1085,896
13085,1071,895
13090,1071,894
13095,1068,893
13100,1064,888
13105,1072,883
13110,1060,883
13115,1056,881
13120,1048,879
13125,1040,880
13130,1026,879
13135,1033,873
13140,1022,874
13145,1022,866
13150,1014,870
13155,1012,865
13160,1002,860
13165,994,866
13170,977,865
13175,971,863
13180,966,857
13185,960,854
13190,953,857
13195,936,856
13200,934,851
13205,922,848
13210,903,843
13215,900,845
13220,880,842
13225,885,841
13230,873,836
13235,857,836
13240,841,830
13245,842,828
13250,827,827
13255,827,819
13260,808,817
13265,805,813
13270,792,806
13275,788,809
13280,784,799
13285,779,791
13290,770,789
13295,765,778
13300,763,775
13305,748,770
13310,749,760
13315,754,759
13320,745,747
13325,744,744
13330,750,737
13335,745,730
13340,744,726
13345,752,716
13350,756,706
13355,762,701
13360,774,694
13365,773,691
13370,782,682
13375,793,676
13380,796,670
13385,803,674
13390,806,655
13395,824,654
13400,842,649
13405,844,650
13410,860,643
13415,869,642
13420,875,636
13425,896,636
13430,908,630
13435,925,629
13440,940,629
13445,941,630
13450,965,628
13455,976,632
13460,987,631
13465,996,636
13470,1015,636
13475,1036,641
13480,1038,648
13485,1059,652
13490,1058,656
13495,1080,661
13500,1090,661
13505,1104,670
13510,1112,683
13515,1119,679
13520,1130,692
13525,1126,696
13530,1147,698
13535,1151,713
13540,1154,719
13545,1169,731
13550,1173,738
13555,1169,745
13560,1175,760
13565,1179,764
13570,1185,778
13575,1182,781
13580,1192,795
13585,1189,803
13590,1180,812
13595,1193,823
13600,1183,833
13605,1183,838
13610,1179,845
13615,1177,848
13620,1190,861
13625,1185,863
13630,1169,881
13635,1174,878
13640,1175,884
13645,1164,892
13650,1161,891
13655,1160,899
13660,1154,909
13665,1146,908
13670,1140,915
13675,1138,914
13680,1137,920
13685,1138,925
13690,1134,922
13695,1137,921
13700,1123,924
13705,1128,933
13710,1122,922
13715,1108,930
13720,1113,924
13725,1114,926
13730,1101,924
13735,1099,924
13740,1102,925
13745,1102,919
13750,1100,922
13755,1094,914
13760,1086,914
13765,1092,910
13770,1091,912
13775,1090,902
13780,1085,904
13785,1075,901
13790,1081,898
13795,1074,902
13800,1071,892
13805,1069,892
13810,1068,890
13815,1059,890
13820,1050,886
13825,1056,880
13830,1050,881
13835,1037,877
13840,1043,872
13845,1031,883
13850,1029,872
13855,1022,872
13860,1019,870
13865,1011,867
13870,996,869
13875,982,867
13880,984,860
13885,975,858
13890,962,860
13895,952,858
13900,944,855
13905,941,855
13910,927,852
13915,917,850
13920,906,849
13925,899,848
13930,890,842
13935,875,839
13940,868,835
13945,863,835
13950,845,830
13955,840,828
13960,836,827
13965,815,827
13970,821,821
13975,800,808
13980,789,807
13985,785,806
13990,776,796
13995,774,789
14000,773,789
14005,762,781
14010,767,774
14015,759,763
14020,751,760
14025,743,755
14030,748,752
14035,749,740
14040,752,735
14045,753,730
14050,751,725
14055,755,724
14060,756,710
14065,759,702
14070,769,701
14075,772,688
14080,781,677
14085,784,680
14090,798,669
14095,803,659
14100,814,662
14105,821,659
14110,838,657
14115,844,647
14120,855,643
14125,868,641
14130,880,638
14135,904,638
14140,908,631
14145,917,625
14150,935,630
14155,954,625
14160,965,630
14165,983,633
14170,989,634
14175,1001,628
14180,1015,640
14185,1036,634
14190,1050,645
14195,1055,651
14200,1071,651
14205,1088,658
14210,1093,664
14215,1103,671
14220,1108,679
14225,1121,681
14230,1123,689
14235,1143,701
14240,1141,707
14245,1156,717
14250,1161,722
14255,1174,730
14260,1172,739
14265,1173,750
14270,1168,761
14275,1183,765
14280,1191,779
14285,1188,783
14290,1184,794
14295,1185,807
14300,1186,814
14305,1176,825
14310,1182,826
14315,1188,843
14320,1178,850
14325,1191,853
14330,1178,859
14335,1185,869
14340,1171,875
14345,1170,883
14350,1167,893
14355,1167,894
14360,1165,899
14365,1170,904
14370,1156,909
14375,1157,909
14380,1144,915
14385,1141,914
14390,1139,919
14395,1134,920
14400,1127,922
14405,1123,923
14410,1134,922
14415,1121,929
14420,1109,927
14425,1112,927
14430,1106,928
14435,1100,925
14440,1104,926
14445,1106,924
14450,1104,921
14455,1102,918
14460,1099,922
14465,1099,915
14470,1088,913
14475,1093,912
14480,1085,910
14485,1088,904
14490,1081,900
14495,1079,899
14500,1074,903
14505,1077,898
14510,1076,890
14515,1063,889
14520,1061,893
14525,1056,880
14530,1053,884
14535,1049,878
14540,1044,882
14545,1042,878
14550,1037,878
14555,1029,877
14560,1025,876
14565,1022,865
14570,1021,873
14575,1010,868
14580,992,862
14585,992,861
14590,983,859
14595,978,859
14600,961,856
14605,954,856
14610,937,857
14615,938,858
14620,928,849
14625,911,846
14630,907,844
14635,895,843
14640,883,844
14645,870,833
14650,866,836
14655,862,837
14660,849,832
14665,836,823
14670,831,824
14675,815,819
14680,808,817
14685,790,810
14690,795,810
14695,791,802
14700,778,791
14705,775,791
14710,763,786
14715,763,776
14720,769,773
14725,751,765
14730,752,761
14735,750,749
14740,749,754
14745,757,740
14750,755,734
14755,761,732
14760,756,725
14765,764,720
14770,764,708
14775,758,698
14780,774,697
14785,773,687
14790,780,683
14795,791,678
14800,795,671
14805,816,664
14810,813,659
14815,822,652
14820,835,645
14825,850,642
14830,870,642
14835,872,638
14840,891,634
14845,902,636
14850,901,632
14855,918,632
14860,932,633
14865,949,630
14870,969,635
14875,978,635
14880,996,634
14885,1011,630
14890,1017,635
14895,1032,647
14900,1046,643
14905,1050,647
14910,1067,650
14915,1077,657
14920,1095,667
14925,1105,668
14930,1118,677
14935,1121,682
14940,1121,696
14945,1139,698
14950,1145,707
14955,1148,719
14960,1159,727
14965,1168,733
14970,1166,743
14975,1176,750
14980,1175,762
14985,1174,771
14990,1181,778
14995,1189,785
15000,1187,795
15005,1184,803
15010,1186,816
15015,1186,827
15020,1182,833
15025,1191,842
15030,1181,849
15035,1189,858
15040,1185,860
15045,1178,869
15050,1168,880
15055,1166,884
15060,1158,893
15065,1163,894
15070,1155,902
15075,1158,904
15080,1147,908
15085,1143,911
15090,1147,913
15095,1139,919
15100,1136,917
15105,1140,922
15110,1128,927
15115,1126,921
15120,1125,927
15125,1122,927
15130,1121,925
15135,1115,927
15140,1110,922
15145,1111,924
15150,1116,924
15155,1104,923
15160,1090,921
15165,1099,916
15170,1095,921
15175,1092,910
15180,1096,918
15185,1094,907
15190,1088,903
15195,1078,908
15200,1078,901
15205,1081,905
15210,1069,899
15215,1073,895
15220,1073,889
15225,1071,894
15230,1062,887
15235,1051,885
15240,1060,881
15245,1047,882
15250,1048,880
15255,1035,877
15260,1028,879
15265,1030,878
15270,1022,866
15275,1017,872
15280,1018,865
15285,1003,871
15290,989,863
15295,989,862
15300,972,860
15305,976,859
15310,965,860
15315,943,855
15320,937,859
15325,924,846
15330,916,851
15335,918,851
15340,912,844
15345,899,841
15350,877,840
15355,873,843
15360,856,835
15365,847,839
15370,853,836
15375,829,826
15380,827,821
15385,824,820
15390,806,812
15395,794,810
15400,793,802
15405,784,800
15410,781,796
15415,776,794
15420,770,784
15425,764,783
15430,757,770
15435,754,764
15440,753,760
15445,753,753
15450,744,749
15455,753,743
15460,736,734
15465,757,723
15470,742,725
15475,755,715
15480,758,708
15485,765,705
15490,776,698
15495,775,690
15500,782,677
15505,780,679
15510,800,670
15515,805,663
15520,817,663
15525,830,654
15530,834,649
15535,842,644
15540,861,642
15545,875,643
15550,888,638
15555,891,632
15560,912,632
15565,926,628
15570,945,628
15575,948,634
15580,965,631
15585,987,628
15590,994,634
15595,999,633
15600,1023,636
15605,1034,645
15610,1045,643
15615,1063,657
15620,1068,654
15625,1087,658
15630,1091,671
15635,1109,674
15640,1111,679
15645,1129,679
15650,1126,694
15655,1143,697
15660,1152,710
15665,1164,719
15670,1160,725
15675,1161,734
15680,1171,740
15685,1186,756
15690,1185,756
15695,1186,777
15700,1180,781
15705,1189,790
15710,1183,798
15715,1181,805
15720,1197,815
15725,1183,821
15730,1190,833
15735,1176,837
15740,1188,841
15745,1181,856
15750,1175,864
15755,1166,868
15760,1171,875
15765,1169,881
15770,1174,886
15775,1167,901
15780,1163,898
15785,1161,907
15790,1163,911
15795,1149,912
15800,1141,914
15805,1150,921
15810,1147,918
15815,1134,921
15820,1135,924
15825,1129,927
15830,1128,924
15835,1116,929
15840,1127,927
15845,1120,923
15850,1109,924
15855,1108,930
15860,1110,925
15865,1097,920
15870,1101,922
15875,1105,918
15880,1093,918
15885,1089,916
15890,1092,914
15895,1095,910
15900,1086,911
15905,1086,904
15910,1081,906
15915,1084,902
15920,1078,895
15925,1072,896
15930,1064,895
15935,1069,891
15940,1060,892
15945,1061,887
15950,1053,883
15955,1050,887
15960,1049,878
15965,1040,873
15970,1038,880
15975,1033,874
15980,1025,877
15985,1016,867
15990,1006,868
15995,999,863
16000,991,864
16004,985,862
16010,981,865
16015,977,858
16020,964,855
16024,953,861
16030,943,855
16035,943,848
16040,928,850
16045,911,849
16050,903,849
16055,901,846
16059,891,842
16065,872,839
16070,862,834
16075,865,837
16079,836,829
16085,843,825
16090,830,820
16094,824,825
16100,806,817
16105,803,810
16110,785,802
16114,778,802
16120,773,798
16125,772,796
16129,767,790
16135,765,776
16140,749,773
16145,755,769
16149,754,760
16155,752,752
16160,751,751
16165,743,738
16170,754,733
16175,752,734
16180,754,717
16184,751,717
16190,754,709
16195,773,699
16200,766,693
16204,782,689
16210,773,676
16215,780,677
16219,803,673
16225,815,661
16230,812,661
16235,827,660
16239,840,650
16245,854,644
16250,866,642
16254,873,641
16260,882,635
16265,907,637
16270,908,635
16274,928,633
16280,929,628
16285,950,632
16290,971,629
16295,988,626
16300,996,635
16305,1006,638
16309,1027,639
16315,1040,637
16320,1039,647
16325,1052,649
16329,1070,651
16335,1087,658
16340,1088,669
16344,1101,668
16350,1109,677
16355,1120,687
16360,1130,699
16364,1140,703
16370,1157,715
16375,1151,721
16379,1167,725
16385,1160,734
16390,1171,739
16395,1168,751
16400,1177,758
16405,1181,770
16410,1174,780
16415,1193,785
16420,1183,797
16425,1196,807
16430,1183,818
16435,1191,821
16440,1194,833
16445,1192,840
16450,1185,851
16455,1179,854
16460,1186,862
16465,1176,874
16470,1174,878
16475,1165,886
16480,1170,888
16485,1162,895
16490,1173,899
16495,1161,907
16500,1150,909
16505,1145,913
16510,1147,916
16515,1144,921
16520,1139,921
16525,1137,923
16530,1140,924
16535,1127,927
16540,1117,926
16545,1118,923
16550,1119,929
16555,1116,926
16560,1113,931
16565,1113,928
16570,1110,921
16575,1097,919
16580,1104,924
16585,1099,920
16590,1091,911
16595,1098,919
16600,1094,913
16605,1101,908
16610,1096,906
16615,1085,901
16620,1073,901
16625,1076,900
16630,1080,898
16635,1088,893
16640,1066,894
16645,1063,894
16650,1064,889
16655,1061,891
16660,1051,881
16665,1048,882
16670,1050,875
16675,1043,877
16680,1041,873
16685,1028,877
16690,1024,870
16695,1021,863
16700,1017,869
16705,1001,864
16710,998,865
16715,986,864
16720,987,857
16725,973,859
16730,962,851
16735,956,858
16740,949,853
16745,925,845
16750,923,850
16755,915,843
16760,903,845
16765,893,845
16770,887,838
16775,874,845
16780,865,838
16785,854,836
16790,843,831
16795,825,819
16800,824,819
16805,817,817
16810,810,820
16815,797,814
16820,787,809
16825,778,800
16830,777,799
16835,768,793
16840,763,789
16845,762,780
16850,749,770
16855,746,769
16860,749,761
16865,761,755
16870,750,752
16875,740,741
16880,759,738
16885,746,720
16890,748,722
16895,762,710
16900,763,711
16905,752,702
16910,769,692
16915,774,686
16920,777,677
16925,792,676
16930,798,667
16935,802,664
16940,823,655
16945,833,651
16950,835,643
16955,849,640
16960,866,644
16965,869,636
16970,888,639
16975,914,628
16980,914,633
16985,923,633
16990,942,633
16995,962,622
17000,974,627
17005,981,640
17010,1000,633
17015,1008,640
17020,1023,637
17025,1036,642
17030,1051,641
17035,1061,649
17040,1073,657
17045,1097,663
17050,1095,665
17055,1111,673
17060,1111,679
17065,1121,692
17070,1134,691
17075,1146,701
17080,1153,706
17085,1151,714
17090,1174,724
17095,1169,730
17100,1167,743
17105,1168,753
17110,1183,767
17115,1181,773
17120,1182,778
17125,1183,794
17130,1185,802
17135,1197,809
17140,1186,815
17145,1197,824
17150,1192,833
17155,1193,841
17160,1192,846
17165,1170,854
17170,1175,864
17175,1179,868
17180,1178,877
17185,1173,884
17190,1166,892
17195,1166,896
17200,1165,900
17205,1156,901
17210,1148,910
17215,1143,916
17220,1143,916
17225,1146,923
17230,1140,921
17235,1127,918
17240,1130,926
17245,1126,929
17250,1124,926
17255,1131,923
17260,1110,923
17265,1120,927
17270,1105,921
17275,1117,929
17280,1105,927
17285,1100,925
17290,1103,916
17295,1098,920
17300,1101,914
17305,1088,917
17310,1088,913
17315,1081,912
17320,1083,905
17325,1092,904
17330,1078,902
17335,1079,904
17340,1073,899
17345,1081,893
17350,1065,888
17355,1059,893
17360,1069,889
17365,1061,887
17370,1055,883
17375,1050,881
17380,1045,881
17385,1038,881
17390,1037,873
17395,1035,874
17400,1028,870
17405,1024,871
17410,1014,864
17415,1004,864
17420,998,864
17425,993,861
17430,973,858
17435,972,865
17440,964,860
17445,953,847
17450,939,852
17455,923,854
17460,918,848
17465,912,845
17470,898,848
17475,886,847
17480,885,839
17485,874,840
17490,876,841
17495,848,827
17500,850,832
17505,822,824
17510,818,822
17515,811,815
17520,808,815
17525,806,812
17530,791,802
17535,789,800
17540,774,800
17545,776,788
17550,767,780
17555,759,776
17560,759,772
17565,752,764
17570,747,761
17575,755,752
17580,746,748
17585,745,740
17590,738,730
17595,760,731
17600,751,717
17605,761,716
17610,749,707
17615,766,703
17620,781,696
17625,782,686
17630,784,685
17635,802,677
17640,802,672
17645,815,663
17650,821,657
17655,824,652
17660,845,647
17665,855,648
17670,859,645
17675,874,639
17680,886,635
17685,921,634
17690,916,634
17695,941,632
17700,944,630
17705,959,631
17710,970,630
17715,987,631
17720,1000,632
17725,1007,630
17730,1025,640
17735,1036,648
17740,1050,644
17745,1065,651
17750,1074,653
17755,1090,661
17760,1086,664
17765,1107,675
17770,1107,683
17775,1118,692
17780,1143,696
17785,1138,702
17790,1154,705
17795,1158,723
17800,1157,727
17805,1171,738
17810,1171,746
17815,1177,755
17820,1174,764
17825,1180,774
17830,1185,783
17835,1193,796
17840,1190,799
17845,1191,811
17850,1187,819
17855,1194,826
17860,1195,835
17865,1195,847
17870,1181,849
17875,1183,857
17880,1174,862
17885,1180,871
17890,1182,877
17895,1172,884
17900,1167,889
17905,1157,894
17910,1159,902
17915,1152,906
17920,1154,910
17925,1147,910
17930,1150,915
17935,1146,922
17940,1128,919
17945,1129,921
17950,1128,923
17955,1124,924
17960,1116,925
17965,1114,925
17970,1109,925
17975,1116,926
17980,1125,926
17985,1106,921
17990,1107,922
17995,1107,920
18000,1113,916
18005,1095,917
18010,1091,920
18015,1097,918
18020,1087,912
18025,1089,909
18030,1084,904
18035,1080,900
18040,1078,902
18045,1081,897
18050,1069,894
18055,1074,893
18060,1069,899
18065,1067,891
18070,1066,892
18075,1062,888
18080,1054,884
18085,1049,878
18090,1050,873
18095,1042,877
18100,1033,874
18105,1034,876
18110,1024,869
18115,1016,876
18120,1008,870
18125,1011,862
18130,996,864
18135,984,861
18140,976,860
18145,965,860
18150,954,858
18155,944,854
18160,941,854
18165,930,851
18170,927,847
18175,912,852
18180,903,843
18185,888,844
18190,890,843
18195,882,836
18200,861,835
18205,848,833
18210,840,833
18215,827,825
18220,830,825
18225,813,814
18230,807,816
18235,802,812
18240,786,808
18245,781,801
18250,774,799
18255,772,794
18260,759,787
18265,762,777
18270,758,773
18275,751,757
18280,756,765
18285,746,757
18290,758,747
18295,744,740
18300,746,738
18305,754,720
18310,748,717
18315,752,711
18320,756,706
18325,757,694
18330,767,694
18335,786,682
18340,788,682
18345,788,671
18350,799,661
18355,813,658
18360,813,663
18365,831,650
18370,852,651
18375,844,646
18380,865,636
18385,877,638
18390,884,637
18395,916,635
18400,930,633
18405,926,632
18410,937,629
18415,966,623
18420,962,627
18425,984,634
18430,996,629
18435,1016,635
18440,1022,646
18445,1041,642
18450,1055,645
18455,1062,651
18460,1083,651
18465,1091,658
18470,1089,663
18475,1107,669
18480,1120,679
18485,1128,686
18490,1139,693
18495,1142,697
18500,1150,712
18505,1159,717
18510,1167,724
18515,1178,737
18520,1172,747
18525,1171,755
18530,1175,768
18535,1182,776
18540,1187,786
18545,1184,789
18550,1194,802
18555,1192,799
18560,1188,814
18565,1176,824
18570,1186,833
18575,1182,843
18580,1178,851
18585,1184,859
18590,1176,861
18595,1173,874
18600,1169,873
18605,1176,880
18610,1163,881
18615,1152,895
18620,1160,907
18625,1157,911
18630,1157,904
18635,1145,916
18640,1147,914
18645,1147,918
18650,1133,918
18655,1130,925
18660,1126,921
18665,1129,927
18670,1127,930
18675,1118,931
18680,1115,923
18685,1120,924
18690,1107,919
18695,1119,916
18700,1113,927
18705,1101,920
18710,1097,914
18715,1105,921
18720,1089,920
18725,1096,915
18730,1102,910
18735,1090,911
18740,1085,913
18745,1077,904
18750,1087,905
18755,1072,898
18760,1083,899
18765,1077,890
18770,1070,895
18775,1065,889
18780,1057,889
18785,1063,885
18790,1061,886
18795,1044,880
18800,1038,883
18805,1043,881
18810,1030,874
18815,1023,869
18820,1017,870
18825,1013,870
18830,1008,868
18835,1010,867
18840,987,863
18845,988,863
18850,973,862
18855,970,862
18860,954,859
18865,947,853
18870,938,851
18875,929,855
18880,923,844
18885,900,846
18890,900,845
18895,889,841
18900,882,839
18905,865,844
18910,857,839
18915,849,834
18920,839,824
18925,821,829
18930,820,817
18935,813,819
18940,806,818
18945,793,812
18950,780,802
18955,777,798
18960,779,790
18965,770,787
18970,768,783
18975,759,776
18980,743,767
18985,755,760
18990,751,762
18995,751,748
19000,756,738
19005,745,739
19010,747,733
19015,741,723
19020,755,720
19025,765,712
19030,751,703
19035,767,698
19040,768,693
19045,787,687
19050,779,677
19055,801,673
19060,806,667
19065,810,660
19070,823,657
19075,842,655
19080,842,645
19085,851,642
19090,868,633
19095,877,640
19100,892,635
19105,905,633
19110,925,631
19115,942,627
19120,941,627
19125,963,627
19130,977,630
19135,988,630
19140,999,630
19145,1023,634
19150,1034,641
19155,1049,636
19160,1052,645
19165,1056,648
19170,1079,656
19175,1084,662
19180,1096,667
19185,1103,679
19190,1118,683
19195,1126,691
19200,1137,701
19205,1152,699
19210,1143,714
19215,1154,723
19220,1161,725
19225,1165,741
19230,1178,743
19235,1172,756
19240,1184,764
19245,1180,778
19250,1180,782
19255,1174,794
19260,1186,798
19265,1187,811
19270,1185,821
19275,1185,827
19280,1185,830
19285,1190,843
19290,1176,852
19295,1192,859
19300,1186,869
19305,1180,873
19310,1172,883
19315,1169,888
19320,1172,891
19325,1176,899
19330,1156,903
19335,1155,906
19340,1150,911
19345,1142,914
19350,1142,915
19355,1144,915
19360,1138,925
19365,1132,928
19370,1126,928
19375,1133,925
19380,1122,926
19385,1122,928
19390,1115,923
19395,1103,926
19400,1107,924
19405,1106,921
19410,1103,923
19415,1102,921
19420,1103,920
19425,1099,921
19430,1095,914
19435,1095,915
19440,1085,910
19445,1093,904
19450,1088,906
19455,1087,899
19460,1081,903
19465,1076,900
19470,1069,895
19475,1067,901
19480,1064,891
19485,1069,885
19490,1065,890
19495,1052,885
19500,1057,887
19505,1050,884
19510,1044,876
19515,1036,880
19520,1035,873
19525,1029,871
19530,1018,866
19535,1021,862
19540,1012,868
19545,1000,868
19550,985,865
19555,985,862
19560,978,861
19565,964,860
19570,949,854
19575,950,852
19580,943,854
19585,926,855
19590,920,852
19595,909,846
19600,899,842
19605,891,843
19610,881,840
19615,867,839
19620,861,831
19625,847,830
19630,837,830
19635,825,827
19640,825,819
19645,812,817
19650,807,818
19655,786,809
19660,791,800
19665,784,797
19670,782,786
19675,771,788
19680,768,788
19685,761,776
19690,754,767
19695,753,766
19700,741,761
19705,739,750
19710,750,743
19715,742,734
19720,746,730
19725,757,722
19730,756,715
19735,755,713
19740,759,705
19745,767,703
19750,765,689
19755,787,685
19760,782,681
19765,791,674
19770,802,667
19775,805,658
19780,833,655
19785,830,656
19790,853,647
19795,865,642
19800,865,638
19805,887,634
19810,902,632
19815,902,633
19820,922,633
19825,938,638
19830,954,628
19835,962,629
19840,969,634
19845,986,631
19850,1003,633
19855,1012,639
19860,1038,641
19865,1041,646
19870,1049,647
19875,1074,644
19880,1079,659
19885,1085,660
19890,1095,668
19895,1102,674
19900,1120,686
19905,1123,691
19910,1137,699
19915,1139,706
19920,1156,713
19925,1155,717
19930,1166,728
19935,1160,738
19940,1172,746
19945,1171,757
19950,1186,769
19955,1188,775
19960,1176,781
19965,1182,797
19970,1192,801
19975,1190,815
19980,1195,819
19985,1184,832
19990,1184,838
19995,1187,850
20000,1182,854
20005,1183,862
20010,1181,867
20015,1168,875
20020,1176,882
20025,1162,886
20030,1172,892
20035,1155,898
20040,1156,902
20045,1168,911
20050,1154,908
20055,1146,915
20060,1144,919
20065,1139,915
20070,1130,920
20075,1127,924
20080,1133,925
20085,1123,924
20090,1112,929
20095,1118,927
20100,1111,926
20105,1114,927
20110,1111,924
20115,1100,920
20120,1099,925
20125,1099,917
20130,1103,924
20135,1099,920
20140,1089,916
20145,1099,912
20150,1088,909
20155,1078,909
20160,1085,904
20165,1075,902
20170,1073,904
20175,1075,899
20180,1077,890
20185,1065,894
20190,1075,893
20195,1068,890
20200,1063,888
20205,1059,886
20210,1050,878
20215,1047,883
20220,1044,885
20225,1023,878
20230,1033,876
20235,1026,872
20240,1018,869
20245,1013,867
20250,1007,867
20255,995,865
20260,990,864
20265,984,857
20270,977,859
20275,974,853
20280,959,858
20285,940,859
20290,939,855
20295,923,854
20300,910,851
20305,909,855
20310,893,840
20315,890,843
20320,885,838
20325,872,840
20330,861,832
20335,842,837
20340,843,832
20345,826,827
20350,822,823
20355,805,817
20360,805,804
20365,799,806
20370,789,807
20375,791,796
20380,765,793
20385,761,786
20390,768,784
20395,764,774
20400,753,772
20405,757,761
20410,752,753
20415,750,750
20420,742,741
20425,742,736
20430,746,728
20435,746,724
20440,763,715
20445,759,702
20450,761,699
20455,765,697
20460,763,689
20465,777,690
20470,788,679
20475,801,668
20480,798,668
20485,812,658
20490,834,660
20495,838,650
20500,844,644
20505,856,644
20510,860,640
20515,885,631
20520,897,638
20525,904,629
20530,922,631
20535,929,632
20540,950,632
20545,962,630
20550,972,632
20555,983,630
20560,1003,630
20565,1028,632
20570,1044,638
20575,1042,644
20580,1060,647
20585,1076,654
20590,1077,657
20595,1096,661
20600,1095,669
20605,1115,676
20610,1125,685
20615,1129,697
20620,1135,700
20625,1142,704
20630,1151,715
20635,1161,723
20640,1164,734
20645,1169,744
20650,1174,750
20655,1177,760
20660,1177,766
20665,1185,771
20670,1182,791
20675,1184,796
20680,1184,803
20685,1187,815
20690,1190,824
20695,1192,830
20700,1192,838
20705,1183,844
20710,1194,853
20715,1180,854
20720,1178,869
20725,1166,876
20730,1172,878
20735,1166,890
20740,1155,892
20745,1159,904
20750,1156,901
20755,1161,912
20760,1146,913
20765,1147,915
20770,1150,914
20775,1141,910
20780,1136,925
20785,1131,923
20790,1134,925
20795,1127,932
20800,1125,921
20805,1117,929
20810,1116,923
20815,1107,927
20820,1109,928
20825,1112,930
20830,1113,923
20835,1102,921
20840,1096,924
20845,1103,917
20850,1100,918
20855,1090,915
20860,1082,914
20865,1080,907
20870,1075,907
20875,1080,909
20880,1072,897
20885,1074,897
20890,1074,898
20895,1071,891
20900,1074,895
20905,1069,889
20910,1069,885
20915,1063,889
20920,1047,883
20925,1053,877
20930,1039,879
20935,1037,875
20940,1029,873
20945,1023,873
20950,1019,871
20955,1013,872
20960,1010,867
20965,999,866
20970,993,861
20975,985,861
20980,974,865
20985,969,860
20990,951,859
20995,945,852
21000,926,854
21005,930,849
21010,911,851
21015,907,846
21020,901,849
21025,888,839
21030,883,842
21035,864,843
21040,848,837
21045,844,830
21050,842,823
21055,819,827
21060,811,821
21065,808,819
21070,805,814
21075,797,808
21080,779,804
21085,780,801
21090,778,792
21095,768,791
21100,769,779
21105,744,769
21110,755,772
21115,752,761
21120,743,759
21125,749,746
21130,749,744
21135,746,733
21140,748,733
21145,738,724
21150,755,714
21155,760,710
21160,767,702
21165,770,696
21170,766,690
21175,783,686
21180,793,673
21185,803,676
21190,809,659
21195,819,658
21200,820,656
21205,840,648
21210,845,641
21215,858,639
21220,874,637
21225,881,638
21230,902,636
21235,904,633
21240,929,630
21245,927,627
21250,948,636
21255,955,631
21260,978,635
21265,1002,639
21270,1006,637
21275,1027,639
21280,1034,644
21285,1054,642
21290,1064,649
21295,1073,652
21300,1079,665
21305,1083,671
21310,1102,668
21315,1104,678
21320,1120,680
21325,1130,689
21330,1141,698
21335,1143,706
21340,1153,721
21345,1162,721
21350,1168,729
21355,1173,746
21360,1166,749
21365,1172,759
21370,1184,766
21375,1180,777
21380,1186,790
21385,1188,798
21390,1193,807
21395,1189,813
21400,1190,825
21405,1187,830
21410,1187,845
21415,1184,846
21420,1176,855
21425,1181,861
21430,1176,869
21435,1172,876
21440,1166,881
21445,1166,889
21450,1164,895
21455,1167,901
21460,1159,904
21465,1151,908
21470,1144,915
21475,1150,912
21480,1148,923
21485,1133,920
21490,1136,924
21495,1135,924
21500,1121,926
21505,1131,930
21510,1116,921
21515,1121,926
21520,1114,926
21525,1110,925
21530,1104,927
21535,1114,924
21540,1111,919
21545,1110,920
21550,1103,914
21555,1095,916
21560,1088,913
21565,1083,915
21570,1081,900
21575,1087,909
21580,1087,906
21585,1083,902
21590,1086,902
21595,1063,895
21600,1079,895
21605,1072,893
21610,1058,894
21615,1066,886
21620,1062,887
21625,1054,886
21630,1047,877
21635,1041,875
21640,1036,877
21645,1037,877
21650,1030,875
21655,1024,870
21660,1017,868
21665,1010,870
21670,1001,871
21675,990,867
21680,983,863
21685,984,862
21690,978,856
21695,961,860
21700,956,857
21705,948,854
21710,938,850
21715,931,851
21720,918,848
21725,906,847
21730,895,845
21735,882,842
21740,869,836
21745,871,836
21750,861,837
21755,848,827
21760,835,828
21765,835,827
21770,820,822
21775,812,814
21780,796,809
21785,808,807
21790,793,800
21795,780,792
21800,765,793
21805,769,785
21810,760,783
21815,759,776
21820,756,770
21825,752,759
21830,749,754
21835,741,742
21840,751,743
21845,737,730
21850,753,729
21855,752,721
21860,753,717
21865,763,709
21870,760,704
21875,768,697
21880,765,691
21885,778,681
21890,776,677
21895,792,674
21900,803,669
21905,818,659
21910,824,654
21915,837,656
21920,845,642
21925,854,643
21930,876,638
21935,885,632
21940,901,633
21945,910,636
21950,917,629
21955,939,633
21960,950,631
21965,965,632
21970,974,624
21975,1006,630
21980,1002,630
21985,1016,639
21990,1031,644
21995,1042,640
22000,1052,646
22005,1066,654
22010,1076,659
22015,1100,662
22020,1106,670
22025,1111,675
22030,1118,682
22035,1132,690
22040,1135,703
22045,1143,699
22050,1156,713
22055,1163,722
22060,1173,735
22065,1169,743
22070,1179,752
22075,1179,761
22080,1173,769
22085,1180,778
22090,1185,791
22095,1191,791
22100,1184,812
22105,1183,813
22110,1185,822
22115,1187,830
22120,1174,843
22125,1190,843
22130,1185,857
22135,1176,866
22140,1177,866
22145,1170,879
22150,1169,888
22155,1160,887
22160,1166,889
22165,1162,900
22170,1162,899
22175,1162,910
22180,1145,915
22185,1146,920
22190,1144,918
22195,1135,915
22200,1138,920
22205,1135,925
22210,1124,925
22215,1127,921
22220,1122,925
22225,1116,923
22230,1108,922
22235,1112,928
22240,1114,926
22245,1112,926
22250,1104,924
22255,1102,925
22260,1097,923
22265,1093,919
22270,1087,913
22275,1092,913
22280,1091,907
22285,1086,908
22290,1087,905
22295,1089,907
22300,1080,904
22305,1079,896
22310,1071,896
22315,1067,893
22320,1068,894
22325,1054,884
22330,1054,885
22335,1053,881
22340,1052,877
22345,1044,873
22350,1040,879
22355,1023,874
22360,1037,873
22365,1029,871
22370,1018,873
22375,1010,865
22380,1004,868
22385,994,867
22390,986,869
22395,973,864
22400,967,859
22405,974,859
22410,949,858
22415,940,855
22420,931,851
22425,921,847
22430,919,847
22435,906,852
22440,892,848
22445,893,846
22450,874,837
22455,870,835
22460,856,834
22465,847,830
22470,837,829
22475,818,830
22480,814,821
22485,807,814
22490,806,808
22495,796,802
22500,786,801
22505,780,796
22510,763,788
22515,769,785
22520,765,780
22525,762,773
22530,756,766
22535,752,760
22540,746,756
22545,757,750
22550,738,736
22555,745,739
22560,751,726
22565,748,717
22570,750,721
22575,755,708
22580,768,703
22585,765,689
22590,767,683
22595,780,673
22600,790,674
22605,798,671
22610,807,663
22615,812,660
22620,831,656
22625,831,649
22630,856,648
22635,868,645
22640,875,641
22645,897,634
22650,893,635
22655,918,630
22660,919,630
22665,944,630
22670,953,631
22675,967,631
22680,979,631
22685,992,635
22690,1002,633
22695,1022,641
22700,1041,636
22705,1046,645
22710,1061,641
22715,1079,656
22720,1080,662
22725,1082,664
22730,1099,669
22735,1118,682
22740,1117,686
22745,1128,688
22750,1146,700
22755,1141,706
22760,1155,715
22765,1156,729
22770,1172,730
22775,1170,745
22780,1176,757
22785,1183,762
22790,1188,769
22795,1178,777
22800,1188,785
22805,1189,798
22810,1180,804
22815,1191,814
22820,1184,817
22825,1188,834
22830,1183,840
22835,1179,857
22840,1184,852
22845,1175,864
22850,1179,877
22855,1169,882
22860,1170,882
22865,1179,890
22870,1169,892
22875,1163,896
22880,1153,906
22885,1150,913
22890,1143,912
22895,1144,921
22900,1149,916
22905,1135,922
22910,1133,923
22915,1123,927
22920,1131,922
22925,1122,927
22930,1124,926
22935,1123,927
22940,1112,919
22945,1112,926
22950,1114,927
22955,1104,925
22960,1101,923
22965,1091,917
22970,1101,920
22975,1101,915
22980,1093,913
22985,1090,911
22990,1086,911
22995,1078,907
23000,1090,905
23005,1082,900
23010,1074,897
23015,1070,901
23020,1068,891
23025,1071,890
23030,1063,886
23035,1062,889
23040,1058,890
23045,1055,878
23050,1047,880
23055,1047,883
23060,1048,877
23065,1037,876
23070,1034,873
23075,1025,875
23080,1015,870
23085,1011,866
23090,1013,868
23095,992,867
23100,993,861
23105,971,863
23110,969,860
23115,966,857
23120,949,852
23125,942,856
23130,933,856
23135,929,849
23140,910,849
23145,903,846
23150,896,843
23155,889,844
23160,871,833
23165,864,838
23170,863,835
23175,841,826
23180,834,829
23185,828,818
23190,818,816
23195,803,820
23200,792,814
23205,781,807
23210,784,798
23215,777,801
23220,773,790
23225,769,786
23230,772,781
23235,750,777
23240,750,768
23245,744,763
23250,738,752
23255,743,746
23260,744,738
23265,755,735
23270,749,725
23275,749,726
23280,753,720
23285,769,706
23290,752,702
23295,774,693
23300,783,683
23305,780,681
23310,789,677
23315,805,673
23320,799,668
23325,818,659
23330,820,652
23335,846,650
23340,846,641
23345,861,640
23350,875,643
23355,881,631
23360,894,634
23365,914,630
23370,929,626
23375,942,625
23380,952,625
23385,970,631
23390,979,631
23395,1002,632
23400,1021,634
23405,1029,644
23410,1032,641
23415,1045,649
23420,1062,654
23425,1075,653
23430,1083,659
23435,1085,664
23440,1109,672
23445,1108,680
23450,1122,687
23455,1138,688
23460,1145,699
23465,1155,709
23470,1147,715
23475,1162,722
23480,1180,738
23485,1167,746
23490,1187,757
23495,1174,758
23500,1178,773
23505,1176,774
23510,1187,792
23515,1184,798
23520,1194,813
23525,1184,814
23530,1192,828
23535,1181,829
23540,1172,838
23545,1191,846
23550,1183,858
23555,1179,863
23560,1167,874
23565,1175,880
23570,1174,878
23575,1177,894
23580,1170,898
23585,1172,905
23590,1154,906
23595,1150,904
23600,1144,913
23605,1143,914
23610,1145,917
23615,1137,923
23620,1129,922
23625,1122,923
23630,1122,924
23635,1129,925
23640,1127,923
23645,1121,925
23650,1115,922
23655,1108,927
23660,1110,926
23665,1111,924
23670,1108,926
23675,1105,919
23680,1093,920
23685,1107,918
23690,1093,915
23695,1094,912
23700,1084,912
23705,1085,912
23710,1090,904
23715,1081,905
23720,1081,897
23725,1076,899
23730,1080,894
23735,1068,896
23740,1075,885
23745,1071,885
23750,1054,886
23755,1061,884
23760,1052,880
23765,1039,882
23770,1050,877
23775,1035,877
23780,1030,868
23785,1025,873
23790,1014,874
23795,1003,873
23800,1001,865
23805,999,859
23810,994,861
23815,970,863
23820,971,865
23825,970,854
23830,958,857
23835,942,855
23840,924,860
23845,914,852
23850,913,845
23855,907,846
23860,886,841
23865,888,845
23870,862,832
23875,871,840
23880,849,831
23885,837,828
23890,832,826
23895,829,824
23900,817,820
23905,800,816
23910,795,815
23915,793,809
23920,782,798
23925,781,796
23930,757,788
23935,762,782
23940,765,776
23945,761,771
23950,754,766
23955,752,757
23960,755,748
23965,753,749
23970,759,739
23975,744,733
23980,751,722
23985,757,718
23990,760,709
23995,762,713
24000,763,699
24005,782,686
24010,772,681
24015,790,683
24020,789,671
24025,799,667
24030,812,663
24035,815,655
24040,835,650
24045,837,641
24050,843,641
24055,866,636
24060,872,636
24065,889,636
24070,902,632
24075,915,630
24080,923,630
24085,951,629
24090,961,631
24095,976,629
24100,979,635
24105,999,629
24110,1001,638
24115,1023,632
24120,1043,635
24125,1045,645
24130,1057,652
24135,1069,656
24140,1071,665
24145,1102,669
24150,1105,672
24155,1107,673
24160,1123,685
24165,1129,697
24170,1140,704
24175,1145,714
24180,1161,710
24185,1154,726
24190,1183,734
24195,1163,740
24200,1172,753
24205,1181,763
24210,1179,763
24215,1191,784
24220,1193,794
24225,1191,798
24230,1196,808
24235,1189,809
24240,1190,829
24245,1179,832
24250,1188,847
24255,1192,853
24260,1178,858
24265,1179,868
24270,1173,873
24275,1172,880
24280,1174,882
24285,1171,886
24290,1159,891
24295,1157,901
24300,1157,906
24305,1154,902
24310,1150,913
24315,1152,913
24320,1148,918
24325,1132,922
24330,1137,924
24335,1126,924
24340,1131,921
24345,1119,925
24350,1117,924
24355,1121,928
24360,1120,929
24365,1108,919
24370,1114,925
24375,1099,923
24380,1100,921
24385,1108,924
24390,1095,915
24395,1094,920
24400,1101,909
24405,1084,912
24410,1088,911
24415,1082,911
24420,1082,898
24425,1085,906
24430,1079,901
24435,1070,906
24440,1072,891
24445,1068,895
24450,1067,886
24455,1062,886
24460,1056,878
24465,1055,885
24470,1059,881
24475,1046,886
24480,1034,881
24485,1035,872
24490,1027,875
24495,1023,869
24500,1016,874
24505,1008,869
24510,1010,869
24515,993,865
24520,987,864
24525,974,860
24530,966,858
24535,962,860
24540,952,855
24545,945,851
24550,922,849
24555,923,851
24560,916,853
24565,902,846
24570,892,841
24575,873,844
24580,880,834
24585,864,839
24590,856,830
24595,847,830
24600,830,818
24605,820,823
24610,816,822
24615,807,813
24620,797,809
24625,789,803
24630,785,803
24635,772,793
24640,767,790
24645,764,787
24650,766,780
24655,753,769
24660,756,755
24665,755,762
24670,749,754
24675,738,748
24680,750,739
24685,747,739
24690,748,727
24695,751,717
24700,743,719
24705,757,704
24710,762,702
24715,771,685
24720,774,686
24725,787,677
24730,788,674
24735,801,674
24740,815,667
24745,821,654
24750,826,652
24755,846,650
24760,854,643
24765,863,643
24770,873,639
24775,901,639
24780,910,627
24785,916,632
24790,919,636
24795,944,627
24800,956,628
24805,976,627
24810,982,636
24815,999,634
24820,1020,638
24825,1033,637
24830,1037,640
24835,1057,648
24840,1063,648
24845,1071,652
24850,1087,658
24855,1098,664
24860,1105,672
24865,1121,675
24870,1119,689
24875,1135,692
24880,1143,702
24885,1149,711
24890,1161,718
24895,1157,726
24900,1174,735
24905,1171,747
24910,1181,756
24915,1182,764
24920,1187,771
24925,1188,781
24930,1179,793
24935,1192,796
24940,1195,801
24945,1183,820
24950,1189,827
24955,1189,833
24960,1184,846
24965,1180,849
24970,1180,855
24975,1173,867
24980,1174,868
24985,1163,883
24990,1170,884
24995,1159,888
25000,1161,894
25005,1152,905
25010,1159,909
25015,1151,913
25020,1149,909
25025,1135,913
25030,1138,920
25035,1134,921
25040,1128,924
25045,1127,923
25050,1123,920
25055,1127,924
25060,1120,921
25065,1114,924
25070,1115,933
25075,1111,920
25080,1105,929
25085,1112,922
25090,1108,922
25095,1105,916
25100,1099,915
25105,1095,914
25110,1086,911
25115,1092,915
25120,1089,910
25125,1074,908
25130,1080,905
25135,1078,901
25140,1079,897
25145,1073,897
25150,1073,898
25155,1063,889
25160,1064,890
25165,1063,889
25170,1052,891
25175,1057,878
25180,1049,877
25185,1032,876
25190,1042,876
25195,1027,874
25200,1026,874
25205,1013,864
25210,1008,873
25215,1011,863
25220,1005,864
25225,993,861
25230,980,864
25235,971,856
25240,966,860
25245,954,852
25250,948,853
25255,936,858
25260,931,852
25265,916,852
25270,911,849
25275,901,843
25280,893,852
25285,880,840
25290,865,844
25295,856,829
25300,848,835
25305,840,829
25310,830,825
25315,819,826
25320,807,817
25325,797,810
25330,803,811
25335,791,805
25340,778,800
25345,777,794
25350,773,789
25355,765,780
25360,758,774
25365,759,776
25370,751,764
25375,741,755
25380,748,748
25385,755,738
25390,746,738
25395,737,728
25400,751,725
25405,758,724
25410,758,713
25415,761,704
25420,773,704
25425,770,694
25430,781,688
25435,788,674
25440,786,672
25445,804,672
25450,815,665
25455,826,658
25460,830,655
25465,844,651
25470,852,643
25475,867,645
25480,878,638
25485,885,637
25490,902,635
25495,917,630
25500,927,628
25505,949,629
25510,962,638
25515,964,631
25520,991,628
25525,1006,635
25530,1020,635
25535,1025,640
25540,1041,640
25545,1044,651
25550,1069,649
25555,1071,655
25560,1081,659
25565,1097,668
25570,1107,671
25575,1113,682
25580,1126,692
25585,1130,691
25590,1140,714
25595,1148,710
25600,1167,715
25605,1166,731
25610,1162,737
25615,1173,747
25620,1166,758
25625,1172,766
25630,1186,772
25635,1185,782
25640,1188,796
25645,1185,804
25650,1184,811
25655,1185,817
25660,1193,826
25665,1185,836
25670,1179,847
25675,1176,856
25680,1177,855
25685,1184,866
25690,1181,877
25695,1169,879
25700,1169,889
25705,1159,893
25710,1152,897
25715,1163,898
25720,1158,906
25725,1148,908
25730,1140,913
25735,1148,916
25740,1138,919
25745,1142,923
25750,1132,924
25755,1130,924
25760,1133,926
25765,1118,926
25770,1122,926
25775,1112,930
25780,1112,930
25785,1105,930
25790,1111,931
25795,1107,925
25800,1103,919
25805,1111,920
25810,1096,922
25815,1104,915
25820,1096,915
25825,1091,912
25830,1090,908
25835,1085,911
25840,1084,904
25845,1086,905
25850,1086,892
25855,1073,895
25860,1069,893
25865,1071,889
25870,1067,883
25875,1066,885
25880,1059,880
25885,1051,886
25890,1049,884
25895,1041,875
25900,1040,879
25905,1036,875
25910,1035,873
25915,1016,871
25920,1017,868
25925,1006,867
25930,1003,866
25935,1002,864
25940,988,863
25945,976,863
25950,967,859
25955,951,859
25960,954,855
25965,932,856
25970,922,852
25975,917,850
25980,912,848
25985,893,840
25990,888,840
25995,884,843
26000,869,841
26005,852,834
26010,857,831
26015,844,825
26020,827,820
26025,823,827
26030,807,814
26035,800,812
26040,801,810
26045,782,803
26050,777,796
26055,780,795
26060,783,784
26065,772,787
26070,757,775
26075,748,772
26080,751,769
26085,750,760
26090,747,748
26095,748,744
26100,742,741
26105,752,728
26110,752,725
26115,758,714
26120,756,707
26125,762,707
26130,768,699
26135,770,692
26140,784,682
26145,787,680
26150,798,675
26155,801,671
26160,808,663
26165,819,657
26170,828,652
26175,843,650
26180,848,644
26185,858,641
26190,892,635
26195,888,639
26200,904,631
26205,919,631
26210,927,632
26215,948,637
26220,953,634
26225,976,631
26230,991,628
26235,998,634
26240,1020,639
26245,1031,638
26250,1049,640
26255,1054,650
26260,1068,653
26265,1078,657
26270,1086,657
26275,1105,662
26280,1101,674
26285,1121,680
26290,1128,687
26295,1137,695
26300,1135,701
26305,1146,712
26310,1160,718
26315,1157,732
26320,1161,739
26325,1171,744
26330,1186,758
26335,1173,765
26340,1178,772
26345,1188,780
26350,1184,797
26355,1186,801
26360,1178,813
26365,1193,816
26370,1190,829
26375,1184,834
26380,1192,839
26385,1186,852
26390,1182,861
26395,1176,865
26400,1177,874
26405,1174,883
26410,1164,886
26415,1169,898
26420,1157,898
26425,1155,908
26430,1152,905
26435,1146,911
26440,1142,914
26445,1144,917
26450,1138,927
26455,1139,920
26460,1133,921
26465,1137,920
26470,1125,925
26475,1117,925
26480,1113,923
26485,1124,931
26490,1120,927
26495,1118,921
26500,1111,918
26505,1108,922
26510,1097,922
26515,1094,919
26520,1109,918
26525,1100,917
26530,1100,915
26535,1089,908
26540,1086,912
26545,1094,902
26550,1075,904
26555,1076,902
26560,1080,898
26565,1077,896
26570,1070,893
26575,1059,894
26580,1062,888
26585,1056,887
26590,1050,884
26595,1060,883
26600,1046,885
26605,1043,880
26610,1039,874
26615,1040,873
26620,1021,870
26625,1021,873
26630,1009,872
26635,1007,863
26640,995,859
26645,993,868
26650,987,862
26655,979,857
26660,968,860
26665,957,859
26670,934,856
26675,945,851
26680,935,848
26685,926,851
26690,911,846
26695,894,852
26700,890,841
26705,880,846
26710,868,836
26715,856,837
26720,851,836
26725,832,828
26730,832,822
26735,824,818
26740,806,814
26745,804,811
26750,789,811
26755,788,800
26760,786,797
26765,770,795
26770,772,787
26775,771,785
26780,762,777
26785,760,774
26790,746,763
26795,748,756
26800,746,748
26805,748,742
26810,751,730
26815,747,728
26820,740,722
26825,753,709
26830,762,716
26835,755,704
26840,767,699
26845,773,691
26850,774,682
26855,783,679
26860,792,678
26865,803,666
26870,823,662
26875,826,655
26880,837,651
26885,850,650
26890,855,646
26895,860,645
26900,885,636
26905,892,634
26910,912,632
26915,927,627
26920,935,624
26925,946,628
26930,963,630
26935,968,629
26940,980,633
26945,994,634
26950,1016,634
26955,1025,638
26960,1048,638
26965,1055,645
26970,1073,653
26975,1091,660
26980,1090,666
26985,1095,668
26990,1111,671
26995,1120,679
27000,1123,686
27005,1129,696
27010,1143,706
27015,1145,716
27020,1165,724
27025,1162,728
27030,1165,738
27035,1174,750
27040,1183,760
27045,1176,763
27050,1184,779
27055,1191,788
27060,1181,789
27065,1196,801
27070,1187,808
27075,1191,818
27080,1185,828
27085,1181,840
27090,1183,849
27095,1180,850
27100,1180,864
27105,1171,865
27110,1179,873
27115,1173,883
27120,1168,887
27125,1167,896
27130,1157,897
27135,1152,904
27140,1157,906
27145,1147,907
27150,1150,915
27155,1153,918
27160,1147,917
27165,1127,924
27170,1129,924
27175,1140,920
27180,1128,923
27185,1113,932
27190,1118,926
27195,1109,926
27200,1121,924
27205,1107,926
27210,1098,929
27215,1102,914
27220,1107,914
27225,1103,920
27230,1093,910
27235,1097,916
27240,1098,916
27245,1090,910
27250,1085,907
27255,1086,904
27260,1082,905
27265,1071,897
27270,1079,899
27275,1077,894
27280,1073,895
27285,1069,884
27290,1066,893
27295,1055,886
27300,1056,882
27305,1051,877
27310,1067,880
27315,1045,877
27320,1035,880
27325,1024,874
27330,1020,872
27335,1023,873
27340,1014,870
27345,995,865
27350,998,862
27355,987,866
27360,979,857
27365,974,861
27370,957,861
27375,951,851
27380,947,860
27385,941,855
27390,932,851
27395,909,856
27400,922,846
27405,897,840
27410,890,842
27415,882,840
27420,866,836
27425,858,833
27430,844,834
27435,834,825
27440,824,821
27445,821,815
27450,820,818
27455,798,816
27460,793,806
27465,788,802
27470,781,797
27475,791,798
27480,768,783
27485,771,778
27490,761,780
27495,760,768
27500,754,762
27505,744,757
27510,740,752
27515,754,741
27520,742,735
27525,752,731
27530,748,721
27535,756,717
27540,755,711
27545,768,700
27550,755,693
27555,771,688
27560,774,683
27565,795,682
27570,793,670
27575,803,664
27580,812,664
27585,820,653
27590,836,646
27595,845,649
27600,861,646
27605,882,640
27610,886,640
27615,891,638
27620,902,636
27625,924,629
27630,944,632
27635,956,634
27640,961,623
27645,976,633
27650,985,631
27655,999,636
27660,1009,643
27665,1038,645
27670,1042,642
27675,1056,648
27680,1070,658
27685,1085,652
27690,1090,662
27695,1101,668
27700,1104,677
27705,1125,683
27710,1135,688
27715,1139,697
27720,1146,705
27725,1158,714
27730,1168,719
27735,1168,734
27740,1170,738
27745,1171,748
27750,1178,759
27755,1181,772
27760,1181,775
27765,1188,784
27770,1189,798
27775,1189,804
27780,1191,814
27785,1184,822
27790,1194,835
27795,1192,836
27800,1184,844
27805,1187,858
27810,1170,868
27815,1178,871
27820,1174,876
27825,1184,884
27830,1174,888
27835,1166,887
27840,1148,898
27845,1163,905
27850,1149,906
27855,1150,908
27860,1148,911
27865,1154,917
27870,1141,924
27875,1136,922
27880,1128,925
27885,1121,923
27890,1136,923
27895,1114,930
27900,1116,928
27905,1115,922
27910,1113,926
27915,1114,923
27920,1101,928
27925,1107,921
27930,1102,921
27935,1106,919
27940,1108,914
27945,1103,912
27950,1096,918
27955,1094,911
27960,1083,911
27965,1087,902
27970,1082,903
27975,1079,904
27980,1086,895
27985,1072,892
27990,1077,894
27995,1066,890
28000,1060,882
28005,1057,885
28010,1047,887
28015,1042,880
28020,1044,880
28025,1052,870
28030,1041,876
28035,1029,879
28040,1023,869
28045,1021,873
28050,1017,871
28055,1005,866
28060,1005,863
28065,983,865
28070,981,860
28075,978,858
28080,963,861
28085,951,862
28090,949,855
28095,932,852
28100,924,852
28105,915,844
28110,914,843
28115,903,846
28120,893,843
28125,869,843
28130,863,837
28135,850,838
28140,844,831
28145,841,822
28150,826,824
28155,816,821
28160,805,816
28165,801,813
28170,794,812
28175,791,802
28180,775,800
28185,776,791
28190,767,783
28195,757,781
28200,761,773
28205,763,770
28210,751,762
28215,750,764
28220,742,743
28225,749,742
28230,753,737
28235,747,726
28240,742,727
28245,760,714
28250,760,710
28255,760,704
28260,760,692
28265,775,691
28270,785,681
28275,790,677
28280,798,672
28285,800,665
28290,807,657
28295,828,651
28300,835,654
28305,845,643
28310,864,642
28315,872,641
28320,883,640
28325,899,633
28330,908,631
28335,934,630
28340,940,628
28345,947,630
28350,966,630
28355,977,634
28360,986,638
28365,1001,637
28370,1014,636
28375,1023,641
28380,1043,644
28385,1043,652
28390,1065,653
28395,1082,657
28400,1086,666
28405,1100,666
28410,1115,671
28415,1116,682
28420,1131,687
28425,1146,698
28430,1143,705
28435,1155,714
28440,1151,721
28445,1164,733
28450,1170,744
28455,1179,754
28460,1178,756
28465,1180,764
28470,1187,774
28475,1191,790
28480,1191,790
28485,1191,806
28490,1184,819
28495,1182,823
28500,1182,830
28505,1184,841
28510,1189,846
28515,1176,849
28520,1176,857
28525,1183,870
28530,1179,880
28535,1170,879
28540,1176,890
28545,1160,894
28550,1150,892
28555,1158,902
28560,1157,909
28565,1159,912
28570,1142,923
28575,1144,915
28580,1145,921
28585,1143,922
28590,1135,920
28595,1121,925
28600,1129,928
28605,1125,926
28610,1127,931
28615,1119,928
28620,1113,930
28625,1101,928
28630,1107,925
28635,1101,920
28640,1108,924
28645,1104,923
28650,1093,917
28655,1100,916
28660,1097,917
28665,1085,915
28670,1086,908
28675,1084,899
28680,1087,906
28685,1076,895
28690,1071,896
28695,1087,893
28700,1070,895
28705,1067,889
28710,1063,889
28715,1057,879
28720,1054,877
28725,1053,886
28730,1036,880
28735,1044,886
28740,1031,880
28745,1033,871
28750,1024,870
28755,1013,870
28760,1020,864
28765,1000,865
28770,1000,866
28775,990,867
28780,976,860
28785,969,861
28790,962,861
28795,959,862
28800,941,853
28805,934,854
28810,933,854
28815,908,849
28820,911,848
28825,894,850
28830,885,837
28835,873,840
28840,870,833
28845,856,839
28850,843,833
28855,834,824
28860,815,820
28865,816,824
28870,810,814
28875,805,815
28880,787,806
28885,780,803
28890,771,796
28895,768,792
28900,772,783
28905,767,778
28910,757,776
28915,763,763
28920,744,761
28925,758,757
28930,755,748
28935,751,737
28940,746,731
28945,752,727
28950,756,720
28955,760,712
28960,760,704
28965,756,705
28970,776,696
28975,769,684
28980,778,683
28985,785,676
28990,789,668
28995,807,671
29000,825,659
29005,829,660
29010,843,650
29015,844,646
29020,860,642
29025,861,637
29030,887,640
29035,894,641
29040,915,635
29045,929,627
29050,938,625
29055,955,628
29060,973,630
29065,978,631
29070,998,635
29075,1010,636
29080,1025,641
29085,1033,639
29090,1045,645
29095,1056,648
29100,1070,649
29105,1081,663
29110,1095,665
29115,1091,669
29120,1110,679
29125,1116,680
29130,1130,690
29135,1138,701
29140,1144,708
29145,1151,712
29150,1159,731
29155,1168,726
29160,1170,743
29165,1169,752
29170,1180,761
29175,1185,765
29180,1184,784
29185,1184,787
29190,1194,799
29195,1191,805
29200,1189,817
29205,1180,824
29210,1193,837
29215,1183,836
29220,1175,847
29225,1179,852
29230,1180,867
29235,1179,873
29240,1184,877
29245,1165,885
29250,1160,890
29255,1164,894
29260,1160,901
29265,1161,903
29270,1154,916
29275,1152,913
29280,1152,913
29285,1144,917
29290,1141,920
29295,1136,922
29300,1119,925
29305,1125,925
29310,1130,925
29315,1119,926
29320,1121,927
29325,1116,929
29330,1122,927
29335,1111,926
29340,1101,923
29345,1106,920
29350,1104,918
29355,1098,918
29360,1091,916
29365,1102,919
29370,1095,910
29375,1087,909
29380,1091,910
29385,1081,906
29390,1079,905
29395,1076,900
29400,1082,895
29405,1079,894
29410,1069,897
29415,1073,894
29420,1062,890
29425,1067,890
29430,1059,880
29435,1054,885
29440,1053,876
29445,1042,884
29450,1030,868
29455,1027,874
29460,1021,868
29465,1018,872
29470,1004,872
29475,998,863
29480,994,867
29485,996,866
29490,985,861
29495,966,855
29500,962,860
29505,943,856
29510,939,849
29515,930,852
29520,922,848
29525,912,846
29530,904,848
29535,899,847
29540,883,848
29545,870,843
29550,865,837
29555,856,833
29560,852,828
29565,830,830
29570,820,825
29575,814,818
29580,805,813
29585,804,808
29590,784,807
29595,788,797
29600,778,798
29605,770,792
29610,761,783
29615,751,782
29620,758,774
29625,751,767
29630,748,761
29635,754,748
29640,747,748
29645,749,742
29650,743,738
29655,746,731
29660,762,725
29665,756,715
29670,764,707
29675,770,702
29680,767,694
29685,767,688
29690,783,685
29695,789,681
29700,811,670
29705,802,663
29710,816,657
29715,836,655
29720,841,654
29725,850,647
29730,862,641
29735,880,641
29740,881,634
29745,902,626
29750,916,622
29755,925,629
29760,941,628
29765,950,630
29770,965,628
29775,979,631
29780,992,631
29785,1005,637
29790,1020,639
29795,1037,639
29800,1057,645
29805,1061,647
29810,1078,649
29815,1079,657
29820,1097,667
29825,1109,678
29830,1111,678
29835,1131,681
29840,1126,693
29845,1140,701
29850,1148,708
29855,1165,711
29860,1151,728
29865,1167,732
29870,1166,746
29875,1172,750
29880,1182,763
29885,1186,768
29890,1176,777
29895,1191,788
29900,1192,795
29905,1194,811
29910,1179,815
29915,1178,821
29920,1189,841
29925,1180,836
29930,1179,847
29935,1170,858
29940,1180,864
29945,1180,868
29950,1164,876
29955,1171,881
29960,1167,894
29965,1170,899
29970,1163,901
29975,1157,907
29980,1159,909
29985,1146,912
29990,1151,913
29995,1150,918
30000,1145,922
30005,1134,924
30010,1131,930
30015,1120,924
30020,1125,922
30025,1121,926
30030,1112,922
30035,1113,923
30040,1114,923
30045,1108,927
30050,1108,927
30055,1099,924
30060,1092,925
30065,1093,919
30070,1103,919
30075,1093,909
30080,1094,908
30085,1090,914
30090,1084,908
30095,1088,910
30100,1077,909
30105,1086,900
30110,1074,895
30115,1072,898
30120,1062,893
30125,1069,886
30130,1073,893
30135,1061,888
30140,1063,883
30145,1052,879
30150,1046,873
30155,1034,877
30160,1040,873
30165,1030,874
30170,1017,869
30175,1018,871
30180,1001,866
30185,993,865
30190,988,866
30195,983,863
30200,981,867
30205,975,860
30210,960,863
30215,944,858
30220,940,854
30225,933,851
30230,928,852
30235,910,851
30240,898,843
30245,894,845
30250,894,840
30255,871,839
30260,862,835
30265,852,836
30270,838,833
30275,843,826
30280,833,829
30285,813,816
30290,795,813
30295,798,805
30300,793,806
30305,780,803
30310,778,788
30315,777,789
30320,765,783
30325,766,778
30330,757,772
30335,755,767
30340,743,765
30345,745,753
30350,752,747
30355,748,738
30360,737,732
30365,755,725
30370,749,720
30375,752,710
30380,751,708
30385,766,701
30390,778,693
30395,768,690
30400,780,682
30405,791,677
30410,796,668
30415,807,663
30420,814,653
30425,827,655
30430,839,654
30435,852,644
30440,858,642
30445,873,637
30450,884,637
30455,904,636
30460,913,634
30465,929,633
30470,944,630
30475,957,631
30480,971,630
30485,984,628
30490,997,633
30495,1012,637
30500,1027,635
30505,1037,640
30510,1045,646
30515,1060,649
30520,1067,653
30525,1091,658
30530,1089,662
30535,1105,674
30540,1117,680
30545,1123,687
30550,1135,700
30555,1147,710
30560,1153,711
30565,1160,717
30570,1162,729
30575,1160,735
30580,1173,746
30585,1176,755
30590,1186,762
30595,1174,775
30600,1185,779
30605,1195,791
30610,1189,794
30615,1180,806
30620,1193,817
30625,1191,828
30630,1186,832
30635,1189,836
30640,1184,849
30645,1179,853
30650,1177,865
30655,1169,872
30660,1172,874
30665,1173,880
30670,1164,887
30675,1160,895
30680,1164,904
30685,1162,901
30690,1147,910
30695,1144,913
30700,1152,915
30705,1143,918
30710,1146,922
30715,1134,919
30720,1134,918
30725,1124,923
30730,1120,926
30735,1118,925
30740,1108,931
30745,1107,925
30750,1116,927
30755,1108,925
30760,1103,924
30765,1098,923
30770,1103,917
30775,1101,920
30780,1098,923
30785,1094,914
30790,1094,914
30795,1093,910
30800,1089,905
30805,1075,903
30810,1088,900
30815,1073,900
30820,1072,902
30825,1068,891
30830,1066,898
30835,1063,890
30840,1064,882
30845,1064,882
30850,1048,884
30855,1048,884
30860,1052,880
30865,1030,879
30870,1037,873
30875,1025,875
30880,1024,874
30885,1011,871
30890,1007,868
30895,1000,861
30900,1000,865
30905,986,865
30910,983,860
30915,961,859
30920,955,858
30925,954,861
30930,941,855
30935,926,855
30940,930,853
30945,918,851
30950,900,844
30955,901,846
30960,885,838
30965,868,840
30970,868,835
30975,847,831
30980,835,828
30985,837,828
30990,825,819
30995,816,817
31000,819,820
31005,796,812
31010,783,804
31015,787,798
31020,775,791
31025,758,791
31030,761,786
31035,762,779
31040,752,772
31045,764,766
31050,747,758
31055,752,748
31060,740,745
31065,738,746
31070,747,732
31075,752,732
31080,742,720
31085,761,714
31090,753,706
31095,759,699
31100,767,700
31105,770,691
31110,783,677
31115,789,677
31120,798,664
31125,817,664
31130,821,658
31135,829,652
31140,840,656
31145,848,649
31150,862,640
31155,884,637
31160,885,638
31165,906,630
31170,908,635
31175,933,630
31180,941,629
31185,952,631
31190,966,633
31195,987,630
31200,998,636
31205,1009,636
31210,1024,638
31215,1036,649
31220,1050,646
31225,1055,653
31230,1067,653
31235,1092,659
31240,1103,667
31245,1107,675
31250,1115,682
31255,1120,685
31260,1122,692
31265,1135,704
31270,1156,711
31275,1160,720
31280,1161,727
31285,1167,736
31290,1168,742
31295,1172,757
31300,1173,761
31305,1181,772
31310,1181,780
31315,1188,795
31320,1192,799
31325,1189,814
31330,1183,821
31335,1188,828
31340,1184,838
31345,1191,843
31350,1187,852
31355,1184,858
31360,1182,865
31365,1175,871
31370,1174,873
31375,1163,885
31380,1170,896
31385,1166,903
31390,1164,899
31395,1154,908
31400,1153,913
31405,1150,913
31410,1143,920
31415,1138,920
31420,1133,922
31425,1144,930
31430,1138,930
31435,1126,922
31440,1132,925
31445,1130,928
31450,1112,923
31455,1114,922
31460,1115,927
31465,1108,924
31470,1101,928
31475,1109,923
31480,1105,920
31485,1099,916
31490,1106,917
31495,1085,919
31500,1090,909
31505,1085,905
31510,1089,911
31515,1079,904
31520,1077,904
31525,1076,898
31530,1079,901
31535,1064,891
31540,1063,891
31545,1061,893
31550,1059,886
31555,1064,886
31560,1056,883
31565,1053,872
31570,1043,881
31575,1036,877
31580,1037,880
31585,1023,875
31590,1022,870
31595,1012,866
31600,1009,867
31605,996,868
31610,1000,867
31615,978,863
31620,979,863
31625,964,863
31630,959,857
31635,940,857
31640,934,855
31645,930,851
31650,928,852
31655,904,849
31660,889,847
31665,891,847
31670,892,845
31675,871,834
31680,860,843
31685,853,832
31690,838,830
31695,838,828
31700,827,821
31705,817,820
31710,810,810
31715,800,808
31720,793,804
31725,780,801
31730,764,794
31735,773,791
31740,761,784
31745,757,776
31750,761,773
31755,753,762
31760,745,758
31765,752,749
31770,743,745
31775,753,739
31780,745,731
31785,738,724
31790,758,717
31795,757,711
31800,773,707
31805,767,702
31810,768,689
31815,779,682
31820,782,680
31825,800,672
31830,809,672
31835,814,660
31840,815,651
31845,838,653
31850,835,649
31855,854,638
31860,859,642
31865,885,637
31870,884,631
31875,901,636
31880,923,630
31885,935,630
31890,944,628
31895,963,630
31900,976,632
31905,972,635
31910,995,635
31915,1019,633
31920,1026,638
31925,1036,640
31930,1048,643
31935,1063,652
31940,1072,653
31945,1084,659
31950,1092,663
31955,1109,676
31960,1121,679
31965,1125,688
31970,1128,698
31975,1138,697
31980,1146,712
31985,1161,715
31990,1163,729
31995,1160,741
32000,1180,747
32005,1167,755
32009,1185,763
32015,1185,773
32020,1190,781
32025,1185,791
32030,1188,806
32034,1187,805
32040,1189,814
32045,1190,830
32049,1188,831
32055,1186,839
32060,1182,852
32064,1179,859
32070,1175,864
32075,1188,870
32080,1163,881
32085,1168,885
32090,1153,891
32095,1167,900
32100,1164,908
32104,1150,905
32110,1150,909
32115,1146,905
32119,1141,921
32125,1130,923
32130,1146,925
32134,1128,918
32140,1136,928
32145,1124,927
32150,1125,923
32155,1124,922
32159,1123,923
32165,1118,929
32170,1107,923
32174,1105,921
32180,1114,926
32185,1107,917
32189,1102,921
32195,1091,922
32200,1099,917
32205,1094,913
32210,1081,913
32215,1082,911
32220,1093,907
32225,1081,903
32229,1071,903
32235,1078,897
32240,1084,897
32244,1081,894
32250,1075,889
32255,1074,888
32259,1058,888
32265,1049,889
32270,1056,887
32275,1043,874
32280,1047,877
32284,1026,879
32290,1025,874
32295,1026,874
32299,1019,867
32305,1016,867
32310,1010,860
32314,1000,866
32320,991,861
32325,983,863
32330,968,862
32335,965,863
32340,961,857
32345,955,857
32350,944,854
32354,930,855
32360,928,847
32365,914,847
32369,906,846
32375,887,846
32380,882,845
32384,867,836
32390,854,837
32395,846,831
32400,849,834
32405,828,821
32409,823,821
32415,819,815
32420,812,807
32424,795,809
32430,792,808
32435,788,797
32439,769,789
32445,768,787
32450,754,785
32455,759,779
32460,754,771
32465,750,762
32470,747,759
32475,747,753
32479,745,745
32485,748,729
32490,740,730
32494,748,729
32500,761,717
32505,757,710
32509,757,710
32515,770,700
32520,770,686
32525,768,676
32530,792,687
32534,791,671
32540,806,666
32545,815,664
32549,819,658
32555,826,652
32560,843,651
32564,855,643
32570,869,640
32575,883,640
32580,893,632
32585,906,639
32590,918,632
32595,928,627
32600,946,629
32604,962,632
32610,959,634
32615,987,630
32619,997,636
32625,1000,638
32630,1030,639
32634,1037,645
32640,1050,645
32645,1065,649
32650,1075,657
32655,1077,659
32659,1103,670
32665,1113,676
32670,1113,682
32674,1126,694
32680,1138,694
32685,1138,705
32689,1150,716
32695,1167,718
32700,1157,730
32705,1175,734
32710,1176,749
32715,1178,753
32720,1185,768
32725,1185,770
32729,1182,780
32735,1182,792
32740,1184,808
32744,1189,810
32750,1192,815
32755,1184,829
32759,1192,843
32765,1180,848
32770,1171,854
32775,1179,862
32780,1178,866
32785,1178,875
32790,1171,883
32795,1167,888
32800,1167,892
32805,1163,897
32810,1148,898
32815,1163,907
32820,1147,912
32825,1147,919
32830,1140,919
32835,1144,919
32840,1133,916
32845,1133,924
32850,1128,928
32855,1124,927
32860,1115,924
32865,1115,930
32870,1107,928
32875,1105,924
32880,1105,925
32885,1109,926
32890,1103,924
32895,1101,919
32900,1093,916
32905,1100,919
32910,1098,915
32915,1088,915
32920,1098,908
32925,1087,909
32930,1090,906
32935,1087,899
32940,1073,904
32945,1080,895
32950,1074,898
32955,1074,896
32960,1070,893
32965,1063,889
32970,1066,882
32975,1057,884
32980,1054,883
32985,1047,883
32990,1042,883
32995,1046,875
33000,1024,874
33005,1025,872
33010,1026,862
33015,1008,868
33020,1000,868
33025,1001,871
33030,982,862
33035,977,862
33040,982,863
33045,970,865
33050,953,856
33055,948,858
33060,947,850
33065,934,847
33070,913,852
33075,912,844
33080,903,841
33085,889,837
33090,875,842
33095,875,840
33100,864,842
33105,851,832
33110,832,825
33115,831,828
33120,811,823
33125,809,814
33130,798,809
33135,792,817
33140,795,801
33145,780,795
33150,763,790
33155,776,788
33160,764,779
33165,756,775
33170,759,772
33175,755,764
33180,757,760
33185,747,747
33190,750,746
33195,745,735
33200,751,734
33205,748,720
33210,754,723
33215,761,713
33220,762,705
33225,771,703
33230,769,691
33235,781,686
33240,788,675
33245,797,671
33250,803,666
33255,817,660
33260,825,658
33265,831,653
33270,837,643
33275,859,641
33280,871,642
33285,877,638
33290,894,633
33295,906,633
33300,927,633
33305,930,633
33310,950,629
33315,961,632
33320,975,628
33325,987,627
33330,1000,638
33335,1017,639
33340,1024,638
33345,1041,644
33350,1050,646
33355,1062,651
33360,1084,655
33365,1087,664
33370,1100,671
33375,1103,674
33380,1126,686
33385,1124,687
33390,1137,695
33395,1145,702
33400,1146,714
33405,1155,720
33410,1159,731
33415,1166,737
33420,1177,748
33425,1167,757
33430,1189,766
33435,1182,775
33440,1175,786
33445,1185,792
33450,1185,800
33455,1188,816
33460,1186,818
33465,1185,833
33470,1196,833
33475,1173,848
33480,1187,855
33485,1179,863
33490,1184,868
33495,1168,879
33500,1180,880
33505,1166,887
33510,1161,886
33515,1172,895
33520,1160,900
33525,1153,905
33530,1156,906
33535,1141,914
33540,1144,913
33545,1147,926
33550,1125,919
33555,1144,923
33560,1131,928
33565,1124,924
33570,1118,924
33575,1118,930
33580,1120,928
33585,1109,925
33590,1112,922
33595,1099,929
33600,1105,924
33605,1099,922
33610,1092,916
33615,1095,917
33620,1091,917
33625,1089,911
33630,1096,911
33635,1077,912
33640,1086,905
33645,1073,904
33650,1076,903
33655,1081,903
33660,1080,893
33665,1066,896
33670,1081,894
33675,1057,894
33680,1066,885
33685,1053,886
33690,1060,880
33695,1048,880
33700,1039,873
33705,1033,878
33710,1034,870
33715,1023,873
33720,1016,870
33725,1014,869
33730,1009,866
33735,997,864
33740,984,861
33745,986,865
33750,976,864
33755,969,855
33760,969,855
33765,954,850
33770,936,850
33775,922,852
33780,913,849
33785,904,852
33790,897,845
33795,886,847
33800,878,838
33805,867,835
33810,865,837
33815,851,828
33820,836,827
33825,822,830
33830,812,821
33835,811,814
33840,798,807
33845,792,807
33850,791,801
33855,784,801
33860,774,789
33865,766,793
33870,768,783
33875,768,769
33880,752,774
33885,758,764
33890,746,755
33895,745,751
33900,750,742
33905,744,738
33910,734,727
33915,749,720
33920,754,718
33925,761,710
33930,763,699
33935,769,695
33940,776,687
33945,770,682
33950,790,677
33955,799,672
33960,801,668
33965,817,660
33970,826,655
33975,844,653
33980,848,647
33985,861,647
33990,875,643
33995,884,639
34000,892,636
34005,911,635
34010,915,634
34015,939,633
34020,950,631
34025,961,633
34030,976,634
34035,990,630
34040,1002,634
34045,1017,632
34050,1019,641
34055,1040,639
34060,1045,645
34065,1060,650
34070,1082,662
34075,1090,668
34080,1100,665
34085,1112,677
34090,1116,677
34095,1125,688
34100,1131,700
34105,1134,707
34110,1154,712
34115,1155,721
34120,1165,730
34125,1176,742
34130,1177,754
34135,1181,756
34140,1180,765
34145,1189,774
34150,1184,787
34155,1189,796
34160,1185,800
34165,1191,806
34170,1198,824
34175,1180,832
34180,1191,837
34185,1189,846
34190,1174,848
34195,1177,859
34200,1172,874
34205,1170,870
34210,1174,881
34215,1166,889
34220,1171,892
34225,1156,904
34230,1166,906
34235,1161,912
34240,1156,910
34245,1149,910
34250,1152,916
34255,1142,921
34260,1140,920
34265,1140,929
34270,1119,926
34275,1122,926
34280,1113,931
34285,1120,924
34290,1118,928
34295,1108,926
34300,1112,927
34305,1108,927
34310,1103,927
34315,1093,927
34320,1101,919
34325,1105,914
34330,1103,912
34335,1086,911
34340,1096,908
34345,1084,911
34350,1083,909
34355,1086,907
34360,1087,897
34365,1072,896
34370,1083,894
34375,1070,895
34380,1059,885
34385,1060,888
34390,1058,891
34395,1063,887
34400,1042,885
34405,1043,875
34410,1042,877
34415,1037,871
34420,1030,872
34425,1033,868
34430,1019,874
34435,1007,869
34440,1007,868
34445,997,867
34450,987,866
34455,985,859
34460,975,858
34465,962,859
34470,962,855
34475,946,858
34480,926,854
34485,931,851
34490,923,850
34495,901,850
34500,904,840
34505,888,842
34510,871,841
34515,869,832
34520,858,832
34525,847,832
34530,835,823
34535,831,822
34540,813,821
34545,811,812
34550,796,811
34555,794,807
34560,789,806
34565,775,793
34570,772,796
34575,769,788
34580,761,779
34585,753,773
34590,746,766
34595,750,762
34600,751,754
34605,750,745
34610,748,744
34615,746,737
34620,752,729
34625,742,726
34630,752,716
34635,762,707
34640,770,699
34645,774,692
34650,778,694
34655,774,684
34660,782,677
34665,804,671
34670,805,668
34675,824,659
34680,816,656
34685,845,646
34690,850,645
34695,857,646
34700,875,637
34705,885,639
34710,898,636
34715,907,637
34720,927,632
34725,937,630
34730,949,633
34735,969,627
34740,980,629
34745,989,633
34750,1004,631
34755,1023,633
34760,1034,640
34765,1047,642
34770,1047,649
34775,1056,649
34780,1086,658
34785,1093,667
34790,1100,668
34795,1114,676
34800,1121,685
34805,1120,697
34810,1147,694
34815,1150,708
34820,1154,712
34825,1157,724
34830,1158,732
34835,1168,744
34840,1168,748
34845,1173,752
34850,1174,766
34855,1183,777
34860,1197,786
34865,1196,799
34870,1179,802
34875,1195,820
34880,1190,824
34885,1190,832
34890,1176,839
34895,1185,846
34900,1182,852
34905,1185,860
34910,1178,870
34915,1168,872
34920,1174,883
34925,1164,884
34930,1176,890
34935,1163,897
34940,1160,901
34945,1153,906
34950,1146,909
34955,1149,909
34960,1147,918
34965,1141,922
34970,1138,926
34975,1136,925
34980,1122,922
34985,1132,926
34990,1131,928
34995,1120,932
35000,1113,928
35005,1116,926
35010,1107,922
35015,1104,924
35020,1097,922
35025,1099,919
35030,1103,919
35035,1096,915
35040,1090,913
35045,1089,910
35050,1082,910
35055,1087,911
35060,1087,907
35065,1085,902
35070,1074,900
35075,1078,895
35080,1078,902
35085,1066,893
35090,1068,885
35095,1064,889
35100,1070,887
35105,1056,886
35110,1051,883
35115,1052,879
35120,1052,880
35125,1043,882
35130,1022,871
35135,1018,873
35140,1020,872
35145,1015,867
35150,999,868
35155,988,866
35160,986,863
35165,980,863
35170,973,858
35175,965,859
35180,957,856
35185,939,857
35190,932,854
35195,917,847
35200,916,846
35205,908,845
35210,902,843
35215,889,844
35220,882,841
35225,862,835
35230,864,829
35235,843,830
35240,834,831
35245,829,821
35250,825,823
35255,806,815
35260,799,818
35265,797,803
35270,789,798
35275,776,797
35280,782,790
35285,773,789
35290,771,780
35295,752,777
35300,748,768
35305,751,758
35310,748,759
35315,744,753
35320,739,742
35325,744,730
35330,751,727
35335,747,723
35340,754,710
35345,762,703
35350,758,699
35355,759,689
35360,775,687
35365,776,685
35370,786,674
35375,790,672
35380,815,666
35385,812,662
35390,827,651
35395,834,644
35400,847,648
35405,850,645
35410,869,632
35415,886,637
35420,904,633
35425,909,633
35430,920,637
35435,935,630
35440,955,630
35445,973,633
35450,978,627
35455,995,639
35460,1006,635
35465,1015,640
35470,1034,640
35475,1055,646
35480,1052,648
35485,1074,652
35490,1082,665
35495,1089,665
35500,1098,663
35505,1116,677
35510,1121,682
35515,1121,694
35520,1133,700
35525,1146,712
35530,1149,714
35535,1168,720
35540,1162,735
35545,1171,746
35550,1173,748
35555,1176,763
35560,1184,770
35565,1182,776
35570,1187,781
35575,1183,794
35580,1179,800
35585,1190,818
35590,1178,823
35595,1188,835
35600,1198,836
35605,1191,848
35610,1182,855
35615,1177,856
35620,1179,870
35625,1173,879
35630,1176,880
35635,1169,887
35640,1165,890
35645,1149,898
35650,1155,899
35655,1145,913
35660,1147,909
35665,1150,914
35670,1148,915
35675,1137,920
35680,1136,915
35685,1136,921
35690,1130,926
35695,1125,922
35700,1127,927
35705,1125,927
35710,1124,927
35715,1113,929
35720,1108,922
35725,1112,921
35730,1108,921
35735,1096,927
35740,1093,918
35745,1107,922
35750,1093,916
35755,1101,915
35760,1091,912
35765,1090,903
35770,1078,904
35775,1070,904
35780,1077,902
35785,1072,898
35790,1074,899
35795,1064,898
35800,1072,897
35805,1064,885
35810,1064,887
35815,1054,883
35820,1045,877
35825,1045,876
35830,1034,877
35835,1029,876
35840,1031,874
35845,1024,869
35850,1011,868
35855,1010,867
35860,1006,867
35865,1000,864
35870,987,866
35875,965,858
35880,964,860
35885,959,852
35890,959,852
35895,943,856
35900,933,853
35905,922,850
35910,904,855
35915,910,847
35920,892,843
35925,886,845
35930,877,843
35935,867,840
35940,852,831
35945,850,833
35950,833,827
35955,821,825
35960,816,826
35965,817,816
35970,794,809
35975,789,809
35980,791,804
35985,775,791
35990,773,790
35995,755,787
36000,758,780
36005,768,774
36010,753,766
36015,746,767
36020,753,751
36025,749,745
36030,756,740
36035,744,736
36040,740,719
36045,757,722
36050,747,713
36055,750,708
36060,757,699
36065,770,692
36070,773,686
36075,775,683
36080,795,678
36085,794,665
36090,804,670
36095,814,654
36100,822,655
36105,843,648
36110,842,653
36115,856,635
36120,878,641
36125,891,637
36130,900,638
36135,911,632
36140,933,632
36145,945,630
36150,955,625
36155,976,629
36160,986,629
36165,989,634
36170,1007,631
36175,1032,638
36180,1034,640
36185,1052,642
36190,1055,649
36195,1071,654
36200,1081,658
36205,1096,661
36210,1109,670
36215,1114,674
36220,1114,684
36225,1131,690
36230,1136,703
36235,1149,708
36240,1158,712
36245,1157,721
36250,1159,732
36255,1171,742
36260,1170,756
36265,1180,759
36270,1180,767
36275,1182,778
36280,1181,787
36285,1190,794
36290,1182,804
36295,1189,814
36300,1187,823
36305,1191,828
36310,1181,844
36315,1172,847
36320,1179,851
36325,1188,863
36330,1176,869
36335,1179,877
36340,1166,882
36345,1170,887
36350,1162,898
36355,1154,900
36360,1157,905
36365,1151,903
36370,1151,914
36375,1140,914
36380,1136,921
36385,1143,917
36390,1138,921
36395,1125,926
36400,1145,926
36405,1121,920
36410,1130,923
36415,1124,927
36420,1113,927
36425,1107,924
36430,1105,925
36435,1098,922
36440,1114,924
36445,1101,926
36450,1100,921
36455,1097,918
36460,1097,909
36465,1093,912
36470,1089,911
36475,1083,909
36480,1081,911
36485,1081,906
36490,1081,901
36495,1081,896
36500,1076,891
36505,1067,894
36510,1060,895
36515,1065,888
36520,1060,885
36525,1059,885
36530,1057,879
36535,1039,882
36540,1035,877
36545,1034,872
36550,1031,876
36555,1022,872
36560,1007,871
36565,1010,865
36570,998,862
36575,999,866
36580,987,868
36585,986,857
36590,974,859
36595,962,856
36600,960,855
36605,945,858
36610,932,849
36615,924,853
36620,916,845
36625,907,846
36630,887,845
36635,885,844
36640,876,840
36645,864,836
36650,858,831
36655,839,831
36660,840,828
36665,828,828
36670,809,818
36675,810,811
36680,809,811
36685,787,805
36690,778,807
36695,778,800
36700,776,795
36705,755,783
36710,764,777
36715,755,777
36720,761,768
36725,758,757
36730,751,751
36735,745,742
36740,740,737
36745,752,734
36750,745,728
36755,749,721
36760,754,716
36765,755,710
36770,766,699
36775,769,695
36780,779,683
36785,783,680
36790,780,675
36795,805,665
36800,811,661
36805,813,660
36810,838,654
36815,842,651
36820,860,643
36825,861,644
36830,872,640
36835,897,638
36840,902,635
36845,914,632
36850,930,635
36855,956,626
36860,958,633
36865,968,633
36870,990,632
36875,992,633
36880,999,637
36885,1027,638
36890,1033,642
36895,1048,640
36900,1068,644
36905,1063,655
36910,1090,655
36915,1093,675
36920,1105,674
36925,1117,679
36930,1128,684
36935,1126,695
36940,1143,701
36945,1154,704
36950,1154,718
36955,1167,718
36960,1164,728
36965,1161,741
36970,1184,753
36975,1183,764
36980,1190,771
36985,1183,782
36990,1178,790
36995,1185,800
37000,1178,807
37005,1188,812
37010,1183,827
37015,1176,832
37020,1186,840
37025,1187,850
37030,1189,861
37035,1184,863
37040,1175,872
37045,1175,874
37050,1173,884
37055,1168,893
37060,1163,895
37065,1154,900
37070,1145,910
37075,1155,906
37080,1144,911
37085,1150,916
37090,1137,916
37095,1139,924
37100,1125,927
37105,1122,926
37110,1128,925
37115,1119,923
37120,1124,923
37125,1117,924
37130,1111,922
37135,1110,927
37140,1117,924
37145,1116,926
37150,1109,920
37155,1098,919
37160,1101,914
37165,1103,918
37170,1106,915
37175,1094,911
37180,1091,911
37185,1085,908
37190,1088,903
37195,1083,900
37200,1080,903
37205,1067,898
37210,1064,896
37215,1064,893
37220,1069,889
37225,1069,889
37230,1055,883
37235,1056,883
37240,1055,888
37245,1045,875
37250,1034,880
37255,1035,870
37260,1034,873
37265,1023,867
37270,1020,873
37275,1010,873
37280,997,865
37285,986,871
37290,987,863
37295,977,859
37300,963,865
37305,953,855
37310,956,858
37315,940,854
37320,936,852
37325,924,850
37330,914,850
37335,905,842
37340,904,843
37345,878,836
37350,865,837
37355,851,843
37360,851,835
37365,840,832
37370,830,828
37375,822,820
37380,819,817
37385,806,813
37390,791,811
37395,780,809
37400,776,797
37405,780,795
37410,772,790
37415,760,789
37420,759,781
37425,756,773
37430,760,767
37435,749,764
37440,753,755
37445,744,751
37450,750,744
37455,752,731
37460,756,724
37465,757,718
37470,751,716
37475,762,709
37480,761,699
37485,771,695
37490,781,691
37495,779,685
37500,790,676
37505,787,673
37510,817,663
37515,825,658
37520,827,657
37525,841,644
37530,846,638
37535,861,642
37540,877,638
37545,887,637
37550,906,630
37555,915,632
37560,922,630
37565,946,631
37570,956,631
37575,972,625
37580,975,632
37585,998,628
37590,1009,641
37595,1024,639
37600,1036,643
37605,1047,645
37610,1065,646
37615,1074,658
37620,1084,659
37625,1097,665
37630,1101,667
37635,1123,680
37640,1124,688
37645,1132,695
37650,1139,706
37655,1153,707
37660,1149,718
37665,1164,723
37670,1163,736
37675,1163,739
37680,1168,753
37685,1183,769
37690,1172,771
37695,1183,784
37700,1191,786
37705,1188,801
37710,1183,810
37715,1193,818
37720,1188,826
37725,1182,832
37730,1184,846
37735,1179,852
37740,1184,859
37745,1175,868
37750,1179,877
37755,1169,875
37760,1172,878
37765,1176,893
37770,1165,900
37775,1154,905
37780,1165,908
37785,1148,908
37790,1146,908
37795,1149,913
37800,1139,917
37805,1145,923
37810,1145,925
37815,1130,925
37820,1126,923
37825,1114,925
37830,1116,918
37835,1124,925
37840,1111,930
37845,1105,926
37850,1105,924
37855,1102,922
37860,1108,927
37865,1102,924
37870,1101,920
37875,1097,920
37880,1107,912
37885,1089,917
37890,1085,908
37895,1088,909
37900,1084,906
37905,1077,901
37910,1083,898
37915,1074,900
37920,1077,896
37925,1063,898
37930,1063,887
37935,1057,888
37940,1057,884
37945,1064,880
37950,1045,876
37955,1037,877
37960,1039,880
37965,1040,877
37970,1033,873
37975,1015,867
37980,1025,872
37985,1006,869
37990,990,865
37995,995,867
38000,984,863
38005,975,870
38010,969,864
38015,952,860
38020,951,858
38025,927,857
38030,936,851
38035,919,853
38040,916,849
38045,899,847
38050,887,848
38055,884,841
38060,866,832
38065,859,834
38070,844,830
38075,840,825
38080,847,830
38085,814,825
38090,813,819
38095,801,807
38100,800,808
38105,797,806
38110,782,794
38115,776,794
38120,775,789
38125,764,776
38130,761,778
38135,757,770
38140,751,765
38145,744,753
38150,746,759
38155,751,743
38160,738,738
38165,736,732
38170,742,729
38175,754,720
38180,754,712
38185,763,706
38190,762,700
38195,759,693
38200,774,684
38205,788,678
38210,794,668
38215,807,666
38220,817,668
38225,816,654
38230,829,651
38235,843,649
38240,854,640
38245,859,640
38250,889,637
38255,893,633
38260,900,633
38265,919,632
38270,926,634
38275,946,625
38280,954,629
38285,973,633
38290,983,637
38295,994,639
38300,1010,634
38305,1022,639
38310,1031,636
38315,1047,649
38320,1068,648
38325,1071,655
38330,1095,663
38335,1103,663
38340,1103,669
38345,1114,679
38350,1122,688
38355,1129,693
38360,1142,698
38365,1153,710
38370,1143,716
38375,1155,730
38380,1172,739
38385,1173,745
38390,1170,754
38395,1186,765
38400,1181,774
38405,1186,779
38410,1185,789
38415,1180,804
38420,1191,804
38425,1189,818
38430,1183,831
38435,1189,836
38440,1191,847
38445,1196,851
38450,1177,861
38455,1184,862
38460,1176,872
38465,1175,881
38470,1167,891
38475,1164,892
38480,1155,900
38485,1162,902
38490,1156,904
38495,1150,910
38500,1147,916
38505,1150,916
38510,1144,923
38515,1136,922
38520,1137,923
38525,1128,926
38530,1133,925
38535,1124,933
38540,1121,919
38545,1117,924
38550,1108,929
38555,1108,926
38560,1108,926
38565,1110,924
38570,1097,920
38575,1100,922
38580,1099,919
38585,1093,921
38590,1100,908
38595,1085,917
38600,1086,910
38605,1086,908
38610,1083,903
38615,1084,903
38620,1077,899
38625,1079,895
38630,1077,897
38635,1071,889
38640,1063,884
38645,1059,888
38650,1054,887
38655,1063,885
38660,1043,882
38665,1050,880
38670,1035,882
38675,1032,879
38680,1028,870
38685,1023,870
38690,1006,868
38695,1009,867
38700,1003,870
38705,992,864
38710,1001,863
38715,979,863
38720,979,856
38725,955,858
38730,948,855
38735,947,853
38740,927,852
38745,920,854
38750,911,845
38755,897,847
38760,884,841
38765,881,842
38770,864,838
38775,855,839
38780,844,832
38785,843,827
38790,830,827
38795,814,821
38800,811,815
38805,802,815
38810,793,812
38815,788,806
38820,775,801
38825,779,795
38830,768,787
38835,768,785
38840,758,779
38845,749,770
38850,750,767
38855,758,760
38860,749,751
38865,735,747
38870,749,739
38875,739,733
38880,751,727
38885,752,724
38890,752,714
38895,759,706
38900,759,700
38905,770,690
38910,778,686
38915,785,680
38920,797,677
38925,800,664
38930,808,663
38935,826,654
38940,822,652
38945,848,648
38950,846,643
38955,860,637
38960,885,630
38965,895,636
38970,906,637
38975,918,634
38980,936,632
38985,945,627
38990,953,629
38995,975,630
39000,985,636
39005,1003,635
39010,1011,643
39015,1023,641
39020,1045,643
39025,1049,648
39030,1066,648
39035,1074,651
39040,1084,663
39045,1102,670
39050,1115,676
39055,1115,674
39060,1117,685
39065,1138,696
39070,1149,702
39075,1157,710
39080,1148,717
39085,1154,725
39090,1169,738
39095,1173,751
39100,1176,756
39105,1171,764
39110,1190,778
39115,1184,786
39120,1193,792
39125,1186,801
39130,1181,810
39135,1200,818
39140,1186,827
39145,1183,839
39150,1183,844
39155,1179,853
39160,1176,858
39165,1170,869
39170,1176,875
39175,1172,881
39180,1171,886
39185,1167,889
39190,1170,900
39195,1159,900
39200,1148,908
39205,1155,910
39210,1159,911
39215,1142,914
39220,1142,922
39225,1135,920
39230,1133,925
39235,1129,924
39240,1126,928
39245,1121,922
39250,1117,930
39255,1123,925
39260,1115,920
39265,1112,925
39270,1105,924
39275,1099,919
39280,1106,916
39285,1101,921
39290,1100,915
39295,1090,917
39300,1090,913
39305,1092,913
39310,1089,907
39315,1087,907
39320,1081,904
39325,1088,911
39330,1081,901
39335,1076,898
39340,1071,897
39345,1076,892
39350,1064,885
39355,1067,885
39360,1062,885
39365,1056,884
39370,1040,878
39375,1042,876
39380,1050,872
39385,1030,869
39390,1026,871
39395,1024,869
39400,1022,867
39405,1005,862
39410,1002,864
39415,996,862
39420,985,858
39425,975,861
39430,960,853
39435,957,859
39440,943,860
39445,928,856
39450,935,857
39455,921,851
39460,916,843
39465,894,850
39470,893,842
39475,875,844
39480,874,838
39485,857,835
39490,844,830
39495,842,831
39500,823,827
39505,817,821
39510,816,819
39515,810,814
39520,795,811
39525,787,801
39530,773,797
39535,775,796
39540,770,782
39545,763,781
39550,760,784
39555,759,773
39560,748,764
39565,746,755
39570,752,752
39575,745,741
39580,743,734
39585,750,732
39590,752,724
39595,763,718
39600,753,716
39605,759,708
39610,761,699
39615,771,688
39620,767,690
39625,784,680
39630,794,669
39635,798,668
39640,814,657
39645,827,661
39650,828,650
39655,849,648
39660,865,644
39665,867,639
39670,895,639
39675,900,632
39680,908,630
39685,921,633
39690,937,632
39695,949,633
39700,957,631
39705,983,633
39710,992,628
39715,1009,631
39720,1014,633
39725,1029,640
39730,1046,642
39735,1063,647
39740,1058,654
39745,1075,657
39750,1089,663
39755,1105,663
39760,1099,679
39765,1117,678
39770,1125,686
39775,1138,696
39780,1144,707
39785,1155,714
39790,1153,720
39795,1161,728
39800,1181,737
39805,1170,747
39810,1177,753
39815,1182,765
39820,1190,772
39825,1184,779
39830,1202,795
39835,1185,803
39840,1194,811
39845,1200,818
39850,1179,832
39855,1182,838
39860,1182,842
39865,1189,854
39870,1181,858
39875,1184,864
39880,1166,873
39885,1176,880
39890,1164,883
39895,1166,889
39900,1159,896
39905,1153,903
39910,1160,906
39915,1148,912
39920,1154,912
39925,1148,918
39930,1141,924
39935,1139,928
39940,1139,926
39945,1132,928
39950,1128,924
39955,1114,926
39960,1129,929
39965,1111,928
39970,1126,930
39975,1106,926
39980,1109,925
39985,1110,924
39990,1107,920
39995,1094,917
40000,1094,915
40005,1095,911
40010,1092,906
40015,1083,910
40020,1082,913
40025,1085,908
40030,1084,908
40035,1085,900
40040,1081,902
40045,1074,897
40050,1073,892
40055,1071,889
40060,1067,888
40065,1061,886
40070,1060,883
40075,1056,880
40080,1046,882
40085,1047,878
40090,1039,874
40095,1030,876
40100,1030,870
40105,1017,871
40110,1011,867
40115,1007,865
40120,998,869
40125,991,863
40130,978,864
40135,983,864
40140,965,856
40145,952,859
40150,954,855
40155,940,854
40160,935,850
40165,930,847
40170,916,847
40175,904,850
40180,895,846
40185,875,844
40190,865,837
40195,852,832
40200,847,832
40205,836,834
40210,828,830
40215,816,821
40220,816,819
40225,806,814
40230,800,809
40235,794,803
40240,783,794
40245,787,795
40250,767,791
40255,769,784
40260,762,773
40265,753,770
40270,749,761
40275,753,757
40280,751,749
40285,750,745
40290,749,735
40295,737,728
40300,751,726
40305,759,713
40310,758,711
40315,757,704
40320,774,697
40325,769,693
40330,778,686
40335,780,678
40340,788,670
40345,808,666
40350,802,665
40355,828,658
40360,833,653
40365,854,650
40370,869,645
40375,869,636
40380,887,635
40385,897,635
40390,915,634
40395,918,629
40400,939,627
40405,947,625
40410,965,628
40415,971,628
40420,997,631
40425,1002,635
40430,1012,631
40435,1030,639
40440,1040,647
40445,1058,648
40450,1074,651
40455,1077,655
40460,1090,655
40465,1098,668
40470,1117,676
40475,1123,678
40480,1127,686
40485,1127,694
40490,1143,703
40495,1151,718
40500,1159,724
40505,1166,738
40510,1168,739
40515,1179,750
40520,1181,755
40525,1173,769
40530,1183,774
40535,1180,787
40540,1187,798
40545,1186,805
40550,1179,810
40555,1187,823
40560,1196,830
40565,1187,841
40570,1187,846
40575,1179,849
40580,1183,863
40585,1184,870
40590,1173,875
40595,1178,883
40600,1174,886
40605,1162,888
40610,1168,898
40615,1162,899
40620,1162,910
40625,1152,914
40630,1147,914
40635,1140,916
40640,1134,925
40645,1135,920
40650,1134,927
40655,1123,924
40660,1128,924
40665,1119,925
40670,1118,924
40675,1120,928
40680,1114,921
40685,1102,925
40690,1105,924
40695,1096,924
40700,1097,922
40705,1100,923
40710,1092,915
40715,1104,916
40720,1102,912
40725,1096,910
40730,1081,907
40735,1092,903
40740,1084,902
40745,1073,906
40750,1066,898
40755,1079,898
40760,1077,894
40765,1073,890
40770,1070,883
40775,1049,885
40780,1063,879
40785,1054,882
40790,1042,881
40795,1039,880
40800,1043,876
40805,1033,875
40810,1029,868
40815,1026,875
40820,1004,872
40825,1015,869
40830,1001,874
40835,990,865
40840,986,865
40845,969,861
40850,960,857
40855,962,861
40860,948,854
40865,937,857
40870,915,842
40875,917,855
40880,913,848
40885,891,848
40890,891,843
40895,881,842
40900,873,839
40905,856,837
40910,845,831
40915,833,827
40920,828,822
40925,824,822
40930,812,817
40935,800,809
40940,794,807
40945,779,802
40950,774,797
40955,772,796
40960,764,790
40965,762,779
40970,759,777
40975,755,765
40980,743,761
40985,757,756
40990,747,747
40995,746,746
41000,758,737
41005,748,726
41010,739,723
41015,746,719
41020,752,707
41025,769,697
41030,770,694
41035,766,687
41040,785,686
41045,789,681
41050,790,669
41055,804,664
41060,815,659
41065,819,655
41070,837,649
41075,842,647
41080,855,644
41085,870,641
41090,889,636
41095,896,634
41100,907,639
41105,919,635
41110,940,634
41115,947,632
41120,960,633
41125,982,633
41130,988,630
41135,998,635
41140,1017,635
41145,1035,640
41150,1049,646
41155,1059,644
41160,1062,652
41165,1077,663
41170,1098,662
41175,1098,672
41180,1109,670
41185,1128,682
41190,1126,686
41195,1139,696
41200,1151,705
41205,1151,713
41210,1158,721
41215,1177,737
41220,1165,737
41225,1169,750
41230,1180,758
41235,1178,771
41240,1188,778
41245,1183,787
41250,1187,796
41255,1196,804
41260,1193,815
41265,1187,820
41270,1187,829
41275,1181,840
41280,1183,846
41285,1183,852
41290,1180,863
41295,1174,869
41300,1180,883
41305,1166,885
41310,1171,890
41315,1161,895
41320,1168,898
41325,1165,907
41330,1150,906
41335,1152,910
41340,1148,911
41345,1150,918
41350,1139,920
41355,1122,923
41360,1134,926
41365,1119,932
41370,1129,925
41375,1119,925
41380,1117,924
41385,1114,919
41390,1115,930
41395,1118,927
41400,1105,925
41405,1108,921
41410,1102,920
41415,1104,919
41420,1091,918
41425,1101,918
41430,1094,911
41435,1089,918
41440,1090,904
41445,1088,904
41450,1083,898
41455,1074,904
41460,1078,905
41465,1070,896
41470,1072,888
41475,1057,895
41480,1068,894
41485,1063,885
41490,1049,886
41495,1042,879
41500,1051,877
41505,1040,875
41510,1037,880
41515,1031,868
41520,1014,870
41525,1017,863
41530,1016,870
41535,1000,862
41540,1001,867
41545,992,864
41550,980,861
41555,968,863
41560,976,857
41565,956,850
41570,943,851
41575,945,852
41580,922,852
41585,913,848
41590,909,846
41595,898,851
41600,887,841
41605,878,840
41610,870,833
41615,856,832
41620,849,834
41625,843,824
41630,826,820
41635,810,819
41640,818,818
41645,803,809
41650,793,806
41655,788,800
41660,770,802
41665,772,798
41670,772,791
41675,766,780
41680,755,780
41685,756,773
41690,750,761
41695,756,755
41700,754,752
41705,748,739
41710,749,734
41715,747,725
41720,748,722
41725,751,719
41730,759,707
41735,761,708
41740,768,696
41745,773,692
41750,788,687
41755,785,674
41760,793,671
41765,801,667
41770,818,662
41775,828,663
41780,838,643
41785,854,645
41790,857,644
41795,874,640
41800,885,639
41805,903,633
41810,921,634
41815,922,632
41820,938,630
41825,954,627
41830,960,629
41835,977,629
41840,989,633
41845,1001,632
41850,1013,635
41855,1026,637
41860,1038,640
41865,1057,648
41870,1078,657
41875,1085,659
41880,1101,666
41885,1097,674
41890,1114,677
41895,1125,678
41900,1127,691
41905,1137,698
41910,1149,707
41915,1153,713
41920,1161,725
