timestamp_ms,ir_finger,ir_toe
0,1046,702
5,1045,704
10,1064,705
15,1067,712
20,1082,721
25,1084,729
30,1098,732
35,1114,740
40,1104,749
45,1120,753
50,1128,760
55,1136,771
60,1139,771
65,1151,776
70,1154,785
75,1156,799
80,1161,798
85,1167,807
90,1174,821
95,1161,824
100,1176,827
105,1180,835
110,1184,840
115,1182,850
120,1180,848
125,1185,857
130,1189,868
135,1190,866
140,1188,873
145,1185,878
150,1192,877
155,1184,884
160,1178,892
165,1182,891
170,1185,899
175,1187,900
180,1182,907
185,1173,907
190,1168,910
195,1176,912
200,1170,915
205,1165,915
210,1163,921
215,1161,912
220,1165,914
225,1158,917
230,1163,921
235,1155,919
240,1136,920
245,1149,919
250,1152,920
255,1147,918
260,1145,927
265,1131,920
270,1132,911
275,1144,921
280,1136,921
285,1120,918
290,1124,916
295,1126,914
300,1111,910
305,1124,910
310,1110,902
315,1109,905
320,1104,906
325,1102,901
330,1102,899
335,1106,901
340,1097,900
345,1100,895
350,1099,891
355,1103,898
360,1107,891
365,1090,890
370,1095,886
375,1082,886
380,1101,876
385,1083,879
390,1081,884
395,1076,881
400,1089,872
405,1079,882
410,1075,869
415,1064,873
420,1066,874
425,1074,873
430,1071,869
435,1061,868
440,1057,868
445,1059,866
450,1056,865
455,1055,856
460,1040,858
465,1037,854
470,1030,858
475,1023,856
480,1025,855
485,1029,855
490,1015,854
495,1016,856
500,1003,847
505,994,852
510,992,847
515,986,847
520,988,839
525,977,840
530,970,840
535,970,837
540,964,837
545,958,833
550,936,830
555,934,837
560,924,827
565,920,825
570,914,827
575,898,821
580,894,817
585,883,809
590,881,812
595,870,808
600,863,802
605,844,795
610,858,798
615,844,791
620,833,788
625,838,784
630,818,784
635,809,777
640,810,771
645,805,768
650,789,760
655,790,761
660,790,752
665,773,744
670,765,745
675,773,732
680,771,732
685,761,726
690,751,725
695,759,715
700,755,716
705,743,712
710,756,698
715,749,700
720,749,697
725,746,690
730,745,688
735,749,682
740,755,678
745,751,677
750,756,669
755,763,664
760,761,660
765,756,656
770,764,650
775,774,651
780,779,650
785,787,645
790,788,647
795,800,637
800,804,641
805,810,642
810,816,636
815,824,638
820,835,640
825,835,640
830,849,634
835,854,637
840,881,633
845,882,634
850,894,642
855,906,638
860,905,648
865,906,649
870,924,653
875,939,648
880,949,657
885,958,658
890,979,667
895,985,669
900,998,671
905,1000,681
910,1015,677
915,1025,686
920,1037,696
925,1043,697
930,1053,699
935,1058,706
940,1072,712
945,1074,721
950,1090,730
955,1101,733
960,1113,739
965,1111,750
970,1118,756
975,1119,757
980,1127,768
985,1142,771
990,1148,783
995,1144,789
1000,1142,792
1004,1166,799
1010,1158,812
1014,1167,813
1020,1179,826
1025,1173,823
1030,1177,837
1035,1177,836
1040,1170,847
1045,1186,854
1050,1183,857
1055,1187,866
1060,1182,868
1065,1199,872
1070,1183,877
1075,1187,881
1080,1191,885
1085,1190,889
1090,1184,893
1095,1181,901
1100,1189,906
1105,1183,906
1110,1176,903
1115,1176,907
1120,1185,913
1125,1169,912
1130,1158,911
1135,1167,913
1140,1171,918
1145,1165,918
1150,1165,920
1155,1156,924
1160,1149,922
1165,1150,923
1170,1153,919
1175,1143,920
1180,1139,928
1185,1142,918
1190,1133,919
1195,1141,919
1200,1132,921
1205,1131,918
1210,1134,923
1215,1124,919
1220,1120,916
1225,1120,912
1230,1116,908
1235,1114,909
1240,1116,905
1245,1112,907
1250,1106,910
1255,1101,902
1260,1106,901
1265,1092,894
1270,1105,895
1275,1102,897
1280,1091,891
1285,1097,891
1290,1089,893
1295,1086,887
1300,1095,885
1305,1092,881
1310,1082,883
1315,1082,884
1320,1083,878
1325,1074,882
1330,1077,878
1335,1078,878
1340,1071,874
1345,1070,870
1350,1073,871
1355,1065,870
1360,1060,868
1365,1048,873
1370,1058,864
1375,1041,865
1380,1051,860
1385,1041,854
1390,1034,859
1395,1027,862
1400,1034,857
1405,1034,853
1410,1021,856
1415,1013,852
1420,1012,850
1425,1014,853
1430,999,852
1435,995,853
1440,991,847
1445,988,841
1450,972,843
1455,963,839
1460,971,841
1465,964,839
1470,949,840
1475,943,836
1480,930,834
1485,921,832
1490,920,826
1495,910,821
1500,908,820
1505,896,816
1510,888,816
1515,880,809
1520,868,811
1525,861,807
1530,856,801
1535,851,802
1540,850,794
1545,834,791
1550,835,789
1555,823,783
1560,806,778
1565,815,775
1570,803,762
1575,791,764
1580,787,760
1585,783,755
1590,776,748
1595,784,740
1600,769,738
1605,765,735
1610,768,725
1615,759,719
1620,757,719
1625,757,712
1630,761,706
1635,742,702
1640,744,704
1645,740,696
1650,748,693
1655,742,685
1660,749,680
1665,739,672
1670,747,675
1675,756,669
1680,759,666
1685,772,662
1690,765,660
1695,761,655
1700,780,650
1705,777,647
1710,784,646
1715,792,641
1720,791,645
1725,801,638
1730,811,639
1735,818,641
1740,827,645
1745,840,634
1750,846,630
1755,857,635
1760,857,637
1765,868,641
1770,879,640
1775,892,641
1780,899,647
1785,908,644
1790,915,647
1795,927,645
1800,941,652
1805,944,649
1810,957,660
1815,965,656
1820,984,671
1825,991,671
1830,1007,674
1835,1014,676
1840,1029,685
1845,1034,689
1850,1038,696
1855,1041,706
1860,1066,709
1865,1070,719
1870,1081,721
1875,1089,737
1880,1095,730
1885,1106,740
1890,1111,754
1895,1122,756
1900,1128,763
1905,1124,766
1910,1141,780
1915,1141,786
1920,1162,792
1925,1158,798
1930,1166,794
1935,1162,811
1940,1166,816
1945,1177,821
1950,1177,826
1955,1173,835
1960,1185,837
1965,1191,848
1970,1188,846
1975,1192,861
1980,1193,867
1985,1195,865
1990,1181,867
1995,1185,875
2000,1190,882
2005,1190,891
2009,1175,886
2015,1180,899
2020,1182,894
2025,1182,896
2029,1182,906
2035,1186,904
2040,1175,909
2045,1178,905
2050,1165,911
2055,1172,919
2060,1178,919
2065,1159,914
2070,1160,917
2075,1160,923
2080,1160,923
2085,1155,921
2090,1160,923
2095,1153,922
2100,1138,925
2105,1149,919
2110,1143,920
2115,1140,922
2120,1127,923
2125,1133,917
2130,1133,917
2135,1124,918
2140,1121,918
2145,1124,919
2150,1120,911
2155,1119,913
2160,1123,904
2165,1110,911
2170,1117,906
2175,1110,904
2180,1110,903
2185,1103,899
2190,1105,894
2195,1104,894
2200,1101,893
2205,1097,891
2210,1090,886
2215,1099,887
2220,1081,887
2225,1093,884
2230,1088,879
2235,1084,874
2240,1093,882
2245,1090,874
2250,1074,879
2255,1070,875
2260,1074,870
2265,1070,871
2270,1068,869
2275,1076,874
2280,1069,873
2285,1054,872
2290,1056,867
2295,1055,867
2300,1047,868
2305,1051,866
2310,1057,857
2315,1039,860
2320,1032,863
2325,1032,860
2330,1030,857
2335,1018,860
2340,1016,851
2345,1015,856
2350,1015,850
2355,1005,848
2360,990,851
2365,988,847
2370,981,844
2375,979,843
2380,966,839
2385,965,836
2390,952,841
2395,948,837
2400,945,834
2405,930,827
2410,930,834
2415,919,825
2420,912,824
2425,898,816
2430,900,816
2435,898,818
2440,889,812
2445,870,808
2450,865,806
2455,863,802
2460,846,796
2465,848,789
2470,831,790
2475,835,782
2480,830,778
2485,827,775
2490,806,775
2495,806,770
2500,797,758
2505,795,757
2510,782,752
2515,777,744
2520,780,744
2525,775,740
2530,772,732
2535,760,738
2540,753,718
2545,754,723
2550,762,715
2555,752,711
2560,733,705
2565,738,695
2570,745,697
2575,741,683
2580,751,687
2585,744,677
2590,752,679
2595,752,669
2600,753,664
2605,756,666
2610,759,658
2615,771,655
2620,771,652
2625,772,650
2630,787,649
2635,782,643
2640,791,642
2645,800,645
2650,802,639
2655,806,640
2660,821,638
2665,835,632
2670,833,636
2675,839,625
2680,844,637
2685,860,630
2690,868,639
2695,881,642
2700,888,634
2705,902,649
2710,913,640
2715,930,648
2720,934,644
2725,936,654
2730,958,654
2735,968,660
2740,963,664
2745,983,664
2750,1004,671
2755,1005,677
2760,1020,688
2765,1029,686
2770,1036,696
2775,1044,697
2780,1053,703
2785,1059,708
2790,1075,719
2795,1084,729
2800,1094,726
2805,1108,732
2810,1099,745
2815,1120,747
2820,1129,753
2825,1129,756
2830,1139,769
2835,1134,778
2840,1141,778
2845,1139,786
2850,1155,795
2855,1163,803
2860,1174,808
2865,1166,819
2870,1169,825
2875,1175,832
2880,1176,836
2885,1182,841
2890,1188,846
2895,1173,852
2900,1181,857
2905,1183,864
2910,1189,871
2915,1186,876
2920,1182,879
2925,1193,885
2930,1192,885
2935,1191,896
2940,1181,893
2945,1181,904
2950,1184,904
2955,1179,901
2960,1178,910
2965,1171,909
2970,1172,909
2975,1176,917
2980,1171,910
2985,1169,918
2990,1171,918
2995,1160,920
3000,1164,925
3005,1171,927
3010,1158,920
3015,1147,919
3020,1159,919
3025,1142,928
3030,1140,923
3035,1143,922
3040,1139,920
3045,1137,917
3050,1128,917
3055,1135,916
3060,1127,920
3065,1124,914
3070,1120,915
3075,1113,916
3080,1130,917
3085,1115,909
3090,1113,907
3095,1109,900
3100,1112,904
3105,1108,900
3110,1100,902
3115,1106,895
3120,1098,897
3125,1103,894
3130,1099,894
3135,1095,888
3140,1095,891
3145,1090,889
3150,1080,889
3155,1087,877
3160,1081,877
3165,1086,879
3170,1076,879
3175,1080,880
3180,1076,874
3185,1071,875
3190,1079,875
3195,1072,868
3200,1069,870
3205,1069,868
3210,1063,862
3215,1052,866
3220,1047,860
3225,1047,859
3230,1044,859
3235,1051,865
3240,1043,857
3245,1035,858
3250,1032,856
3255,1027,858
3260,1028,862
3265,1018,856
3270,999,849
3275,1015,853
3280,1006,844
3285,990,848
3290,982,848
3295,984,842
3300,980,842
3305,967,844
3310,954,838
3315,954,835
3320,948,833
3325,943,833
3330,943,831
3335,933,830
3340,907,823
3345,913,823
3350,905,824
3355,894,816
3360,885,814
3365,876,810
3370,879,804
3375,866,800
3380,864,803
3385,858,789
3390,843,792
3395,834,789
3400,827,782
3405,816,782
3410,811,773
3415,812,764
3420,798,769
3425,794,761
3430,796,758
3435,779,749
3440,782,751
3445,770,747
3450,773,737
3455,769,734
3460,757,730
3465,759,721
3470,759,725
3475,750,713
3480,754,708
3485,740,706
3490,742,699
3495,754,696
3500,741,692
3505,751,683
3510,744,678
3515,746,677
3520,756,672
3525,758,666
3530,753,666
3535,749,656
3540,768,650
3545,776,656
3550,769,648
3555,780,647
3560,787,640
3565,781,644
3570,793,640
3575,802,639
3580,809,637
3585,815,633
3590,818,631
3595,833,635
3600,841,634
3605,861,632
3610,862,638
3615,873,639
3620,886,639
3625,885,642
3630,899,642
3635,914,644
3640,926,646
3645,927,650
3650,943,653
3655,950,652
3660,969,661
3665,979,665
3670,987,664
3675,984,668
3680,1004,677
3685,1015,682
3690,1014,686
3695,1042,688
3700,1046,696
3705,1058,701
3710,1066,708
3715,1071,712
3720,1083,720
3725,1091,732
3730,1101,731
3735,1096,740
3740,1119,747
3745,1119,753
3750,1121,760
3755,1130,763
3760,1143,779
3765,1143,782
3770,1152,788
3775,1154,796
3780,1160,803
3785,1165,814
3790,1174,819
3795,1169,819
3800,1181,823
3805,1173,834
3810,1198,841
3815,1183,839
3820,1181,855
3825,1182,853
3830,1194,864
3835,1183,870
3840,1191,868
3845,1185,883
3850,1190,880
3855,1191,890
3860,1188,891
3865,1189,895
3870,1179,896
3875,1181,902
3880,1184,900
3885,1180,907
3890,1161,907
3895,1175,908
3900,1180,911
3905,1177,917
3910,1162,915
3915,1165,915
3920,1167,920
3925,1167,920
3930,1153,924
3935,1160,917
3940,1155,922
3945,1155,919
3950,1147,926
3955,1136,923
3960,1138,922
3965,1140,919
3970,1138,923
3975,1131,918
3980,1122,917
3985,1123,919
3990,1127,915
3995,1111,917
4000,1111,918
4005,1110,917
4010,1112,908
4014,1112,906
4019,1107,906
4025,1103,907
4030,1108,903
4035,1090,896
4040,1100,895
4045,1108,893
4050,1095,897
4054,1091,888
4059,1094,892
4065,1099,890
4070,1097,883
4075,1091,883
4080,1086,882
4085,1090,886
4090,1086,878
4094,1078,875
4100,1081,879
4105,1067,869
4110,1080,876
4115,1073,873
4120,1073,871
4125,1058,873
4130,1059,872
4135,1066,865
4140,1061,868
4145,1051,862
4150,1050,865
4155,1053,865
4160,1050,859
4165,1047,855
4170,1032,861
4175,1032,854
4180,1028,856
4185,1029,854
4190,1018,854
4195,1016,850
4200,1012,850
4205,1008,848
4210,992,843
4215,992,846
4220,986,848
4225,972,839
4230,970,842
4235,965,838
4240,956,835
4245,950,835
4250,943,829
4255,932,830
4260,925,821
4265,918,833
4270,909,819
4275,909,814
4280,894,815
4285,896,815
4290,883,807
4295,873,808
4300,869,801
4305,864,796
4310,848,797
4315,847,793
4320,839,787
4325,819,787
4330,820,776
4335,814,776
4340,811,774
4345,797,768
4350,799,758
4355,799,761
4360,777,747
4365,785,749
4370,770,742
4375,781,738
4380,761,730
4385,751,727
4390,759,718
4395,751,722
4400,755,711
4405,753,707
4410,746,703
4415,749,698
4420,754,691
4425,753,688
4430,751,683
4435,744,679
4440,751,681
4445,753,671
4450,754,669
4455,749,662
4460,762,662
4465,766,657
4470,771,655
4475,775,652
4480,775,652
4485,775,646
4490,790,641
4495,802,637
4500,807,640
4505,810,637
4510,819,637
4515,832,636
4520,834,632
4525,843,638
4530,858,637
4535,866,636
4540,882,636
4545,875,641
4550,885,635
4555,902,640
4560,907,649
4565,923,648
4570,929,653
4575,940,659
4580,957,661
4585,966,660
4590,967,666
4595,986,663
4600,994,674
4605,1001,676
4610,1018,679
4615,1023,684
4620,1046,701
4625,1049,698
4630,1054,704
4635,1063,716
4640,1066,719
4645,1088,729
4650,1084,732
4655,1096,733
4660,1105,744
4665,1111,743
4670,1123,755
4675,1132,761
4680,1141,763
4685,1141,777
4690,1144,788
4695,1162,792
4700,1160,804
4705,1158,803
4710,1163,807
4715,1168,810
4720,1189,826
4725,1173,828
4730,1172,830
4735,1183,841
4740,1181,847
4745,1185,849
4750,1193,862
4755,1184,861
4760,1185,865
4765,1184,864
4770,1181,880
4775,1185,878
4780,1192,883
4785,1180,888
4790,1193,886
4795,1188,899
4800,1186,905
4805,1179,899
4810,1175,901
4815,1176,905
4820,1177,912
4825,1180,915
4830,1169,916
4835,1165,920
4840,1176,912
4845,1164,917
4850,1164,919
4855,1155,925
4860,1154,922
4865,1150,922
4870,1149,924
4875,1145,923
4880,1144,920
4885,1147,923
4890,1132,920
4895,1140,919
4900,1131,920
4905,1129,920
4910,1134,916
4915,1120,911
4920,1124,919
4925,1117,909
4930,1117,911
4935,1114,905
4940,1106,906
4945,1112,907
4950,1113,906
4955,1103,908
4960,1099,896
4965,1093,892
4970,1095,901
4975,1097,889
4980,1093,897
4985,1095,893
4990,1091,886
4995,1077,884
5000,1078,887
5005,1096,879
5010,1084,882
5015,1078,879
5020,1083,883
5025,1073,879
5030,1076,877
5035,1068,873
5040,1074,873
5045,1066,873
5050,1068,864
5055,1063,868
5060,1056,868
5065,1057,866
5070,1063,863
5075,1051,867
5080,1047,866
5085,1040,865
5090,1041,858
5095,1037,863
5100,1034,861
5105,1027,855
5110,1019,857
5115,1014,852
5120,1018,854
5125,1005,854
5130,998,854
5135,987,846
5140,993,848
5145,974,845
5150,973,848
5155,964,841
5160,954,842
5165,959,839
5170,947,832
5175,943,835
5180,936,833
5185,926,831
5190,921,826
5195,908,819
5200,901,820
5205,897,820
5210,881,817
5215,880,810
5220,868,811
5225,861,805
5230,857,804
5235,841,792
5240,843,792
5245,840,786
5250,825,785
5255,817,783
5260,809,776
5265,799,775
5270,806,766
5275,794,760
5280,789,758
5285,788,752
5290,781,745
5295,767,735
5300,780,738
5305,763,734
5310,755,726
5315,760,719
5320,752,720
5325,750,712
5330,747,702
5335,755,699
5340,748,696
5345,751,700
5350,750,683
5355,753,687
5360,749,680
5365,750,670
5370,755,672
5375,751,665
5380,771,659
5385,763,660
5390,761,659
5395,767,652
5400,773,653
5405,769,648
5410,782,647
5415,804,644
5420,796,638
5425,802,640
5430,809,642
5435,819,640
5440,822,635
5445,841,634
5450,843,636
5455,852,634
5460,863,635
5465,873,638
5470,880,645
5475,886,633
5480,893,638
5485,915,641
5490,926,646
5495,928,648
5500,940,654
5505,947,656
5510,967,658
5515,977,658
5520,981,663
5525,995,674
5530,1003,674
5535,1016,688
5540,1027,684
5545,1029,696
5550,1045,699
5555,1052,705
5560,1065,708
5565,1085,715
5570,1087,723
5575,1091,728
5580,1089,732
5585,1111,745
5590,1110,744
5595,1129,755
5600,1129,759
5605,1136,761
5610,1140,779
5615,1147,789
5620,1152,782
5625,1154,797
5630,1160,801
5635,1177,810
5640,1169,818
5645,1174,824
5650,1174,832
5655,1176,834
5660,1193,838
5665,1191,847
5670,1179,855
5675,1190,857
5680,1187,863
5685,1188,862
5690,1187,872
5695,1194,879
5700,1183,883
5705,1179,887
5710,1188,888
5715,1182,892
5720,1187,898
5725,1185,903
5730,1179,910
5735,1185,904
5740,1186,912
5745,1180,917
5750,1178,918
5755,1168,917
5760,1163,917
5765,1167,920
5770,1167,917
5775,1156,919
5780,1163,926
5785,1151,918
5790,1147,924
5795,1151,920
5800,1146,919
5805,1140,928
5810,1145,921
5815,1136,919
5820,1136,919
5825,1124,914
5830,1131,919
5835,1133,919
5840,1122,916
5845,1114,917
5850,1116,913
5855,1113,909
5860,1116,907
5865,1120,907
5870,1105,904
5875,1102,901
5880,1110,902
5885,1096,899
5890,1102,907
5895,1098,896
5900,1101,896
5905,1097,890
5910,1097,892
5915,1091,888
5920,1099,887
5925,1088,887
5930,1087,886
5935,1087,881
5940,1082,880
5945,1077,879
5950,1076,882
5955,1075,879
5960,1073,875
5965,1076,867
5970,1071,880
5975,1064,868
5980,1062,868
5985,1059,867
5990,1065,867
5995,1066,864
6000,1053,866
6005,1051,863
6010,1039,862
6015,1039,859
6020,1039,864
6025,1033,853
6030,1027,853
6035,1029,856
6040,1009,855
6045,1014,854
6050,1009,855
6055,1012,847
6060,991,850
6065,986,847
6070,980,843
6075,973,844
6080,959,847
6085,968,844
6090,943,835
6095,940,831
6100,937,831
6105,927,823
6110,926,826
6115,915,826
6120,902,825
6125,904,815
6130,904,817
6135,880,807
6140,877,810
6145,873,807
6150,856,807
6155,848,801
6160,846,796
6165,837,790
6170,836,786
6175,833,782
6180,813,777
6185,814,777
6190,803,767
6195,795,767
6200,795,763
6205,786,760
6210,786,750
6215,784,747
6220,771,750
6225,772,731
6230,760,728
6235,761,725
6240,756,722
6245,755,718
6250,763,714
6255,746,707
6260,752,702
6265,751,702
6270,749,693
6275,748,687
6280,744,684
6285,745,677
6290,752,677
6295,749,666
6300,742,674
6305,756,660
6310,764,662
6315,766,653
6320,769,649
6325,783,647
6330,771,649
6335,777,650
6340,797,641
6345,802,641
6350,794,634
6355,815,638
6360,816,638
6365,825,634
6370,840,636
6375,846,635
6380,851,639
6385,857,638
6390,869,635
6395,880,636
6400,904,640
6405,898,639
6410,917,641
6415,915,650
6420,928,650
6425,945,651
6430,955,655
6435,963,659
6440,987,665
6445,978,669
6450,1000,677
6455,1007,670
6460,1019,678
6465,1025,690
6470,1036,698
6475,1039,698
6480,1046,705
6485,1063,710
6490,1065,716
6495,1076,721
6500,1101,727
6505,1095,730
6510,1103,742
6515,1112,748
6520,1118,757
6525,1126,759
6530,1140,769
6535,1139,772
6540,1145,787
6545,1151,786
6550,1156,786
6555,1161,800
6560,1167,808
6565,1170,820
6570,1178,823
6575,1172,824
6580,1176,837
6585,1175,846
6590,1187,846
6595,1176,847
6600,1186,860
6605,1188,869
6610,1188,872
6615,1179,874
6620,1189,878
6625,1188,878
6630,1184,884
6635,1191,885
6640,1186,898
6645,1182,898
6650,1177,903
6655,1181,905
6660,1180,909
6665,1172,906
6670,1177,918
6675,1170,916
6680,1168,916
6685,1163,915
6690,1160,919
6695,1160,918
6700,1153,917
6705,1150,926
6710,1155,923
6715,1144,923
6720,1154,927
6725,1145,919
6730,1144,923
6735,1137,919
6740,1132,925
6745,1130,916
6750,1128,920
6755,1136,912
6760,1134,918
6765,1126,913
6770,1124,913
6775,1124,909
6780,1119,910
6785,1102,907
6790,1108,910
6795,1115,906
6800,1110,899
6805,1110,900
6810,1111,900
6815,1096,899
6820,1095,898
6825,1106,891
6830,1095,889
6835,1088,885
6840,1097,894
6845,1091,890
6850,1094,889
6855,1087,889
6860,1085,884
6865,1076,883
6870,1081,881
6875,1075,880
6880,1075,880
6885,1069,877
6890,1076,871
6895,1075,868
6900,1063,873
6905,1067,867
6910,1055,871
6915,1054,870
6920,1055,863
6925,1049,860
6930,1053,858
6935,1047,865
6940,1040,855
6945,1031,855
6950,1028,857
6955,1028,857
6960,1030,860
6965,1014,855
6970,1008,845
6975,1006,851
6980,991,852
6985,985,847
6990,994,844
6995,986,848
7000,971,843
7005,966,840
7010,960,843
7015,956,834
7020,940,839
7025,939,835
7030,933,829
7035,920,827
7040,915,832
7045,918,826
7050,904,823
7055,892,820
7060,887,808
7065,884,809
7070,866,810
7075,852,802
7080,860,791
7085,846,796
7090,840,791
7095,834,784
7100,829,790
7105,817,779
7110,815,769
7115,808,771
7120,802,772
7125,796,761
7130,786,754
7135,776,748
7140,776,747
7145,765,742
7150,767,735
7155,766,728
7160,758,730
7165,758,724
7170,755,717
7175,765,710
7180,752,707
7185,754,701
7190,754,701
7195,745,690
7200,744,686
7205,742,684
7210,752,680
7215,744,676
7220,753,663
7225,764,666
7230,756,661
7235,756,656
7240,756,659
7245,773,655
7250,762,653
7255,779,644
7260,780,643
7265,788,646
7270,795,646
7275,804,645
7280,801,637
7285,823,637
7290,827,639
7295,844,636
7300,842,635
7305,846,633
7310,866,637
7315,871,640
7320,876,639
7325,897,640
7330,898,638
7335,906,643
7340,923,638
7345,934,652
7350,936,652
7355,959,655
7360,960,661
7365,971,665
7370,983,675
7375,991,675
7380,1008,677
7385,1019,686
7390,1022,687
7395,1033,688
7400,1043,700
7405,1046,698
7410,1069,713
7415,1073,721
7420,1077,723
7425,1089,733
7430,1102,731
7435,1107,746
7440,1110,744
7445,1120,761
7450,1126,758
7455,1134,766
7460,1135,775
7465,1162,787
7470,1150,784
7475,1162,798
7480,1163,802
7485,1160,811
7490,1175,815
7495,1175,824
7500,1184,833
7505,1169,837
7510,1172,838
7515,1188,848
7520,1194,851
7525,1191,861
7530,1191,868
7535,1193,866
7540,1190,870
7545,1184,878
7550,1181,889
7555,1189,885
7560,1182,888
7565,1180,900
7570,1187,907
7575,1183,898
7580,1181,908
7585,1176,905
7590,1181,907
7595,1169,909
7600,1170,912
7605,1178,918
7610,1169,916
7615,1168,916
7620,1154,919
7625,1160,922
7630,1154,925
7635,1155,916
7640,1152,920
7645,1152,921
7650,1145,917
7655,1143,925
7660,1148,923
7665,1134,921
7670,1133,922
7675,1137,914
7680,1127,917
7685,1118,915
7690,1120,912
7695,1126,912
7700,1123,915
7705,1113,909
7710,1112,910
7715,1118,898
7720,1104,907
7725,1114,903
7730,1106,901
7735,1100,902
7740,1106,895
7745,1092,893
7750,1109,897
7755,1091,892
7760,1089,889
7765,1081,887
7770,1093,889
7775,1087,886
7780,1087,882
7785,1088,880
7790,1083,880
7795,1073,878
7800,1081,874
7805,1075,876
7810,1084,872
7815,1080,875
7820,1068,871
7825,1069,867
7830,1061,869
7835,1063,867
7840,1062,869
7845,1052,867
7850,1054,869
7855,1052,857
7860,1046,864
7865,1038,865
7870,1033,856
7875,1037,861
7880,1032,860
7885,1017,856
7890,1019,856
7895,1012,853
7900,998,850
7905,996,851
7910,994,845
7915,987,847
7920,982,848
7925,974,846
7930,968,836
7935,956,840
7940,951,839
7945,956,840
7950,943,838
7955,933,831
7960,922,825
7965,916,828
7970,912,820
7975,901,818
7980,894,818
7985,889,817
7990,881,810
7995,865,812
8000,862,805
8005,866,800
8010,855,796
8015,844,788
8020,833,788
8025,834,783
8029,816,779
8035,816,778
8039,807,771
8045,801,765
8050,793,763
8055,780,754
8060,782,750
8064,769,748
8070,779,744
8074,770,735
8080,762,734
8085,764,731
8090,751,723
8095,762,714
8100,748,710
8105,765,700
8109,757,697
8115,740,697
8119,741,694
8125,754,689
8130,760,681
8135,758,683
8140,735,678
8145,755,668
8150,761,667
8154,759,665
8160,757,659
8164,774,653
8170,770,656
8175,776,648
8180,781,651
8185,784,647
8189,792,640
8195,799,640
8200,803,643
8205,818,640
8210,813,637
8215,820,633
8220,837,635
8225,850,631
8230,864,635
8235,869,634
8240,873,638
8245,888,643
8250,880,645
8255,907,635
8260,908,642
8265,915,645
8270,939,653
8275,932,652
8280,959,650
8285,961,660
8290,974,664
8295,990,666
8300,997,671
8305,1005,679
8310,1010,680
8315,1018,689
8320,1040,693
8325,1041,694
8330,1048,699
8335,1071,712
8340,1065,719
8345,1079,720
8350,1085,735
8355,1087,734
8360,1097,742
8365,1120,752
8370,1125,755
8375,1128,757
8380,1130,767
8385,1145,775
8390,1143,781
8395,1151,784
8400,1151,797
8405,1161,803
8410,1160,816
8415,1169,817
8420,1175,823
8425,1179,828
8430,1176,831
8435,1177,837
8440,1182,849
8445,1187,854
8450,1191,859
8455,1197,861
8460,1191,868
8465,1189,872
8470,1184,874
8475,1186,881
8480,1195,889
8485,1184,887
8490,1189,898
8495,1194,900
8500,1185,899
8505,1185,905
8510,1184,908
8515,1177,907
8520,1174,914
8525,1180,913
8530,1175,917
8535,1169,917
8540,1157,918
8545,1154,923
8550,1161,922
8555,1157,923
8560,1159,925
8565,1156,917
8570,1153,923
8575,1151,920
8580,1141,926
8585,1145,915
8590,1130,923
8595,1133,920
8600,1135,925
8605,1131,917
8610,1124,919
8615,1123,913
8620,1116,913
8625,1123,914
8630,1110,914
8635,1116,907
8640,1118,906
8645,1112,906
8650,1112,904
8655,1107,902
8660,1097,900
8665,1096,899
8670,1100,895
8675,1100,899
8680,1095,885
8685,1091,884
8690,1098,892
8695,1091,886
8700,1089,885
8705,1083,884
8710,1086,877
8715,1078,876
8720,1086,881
8725,1077,874
8730,1075,876
8735,1083,873
8740,1072,869
8745,1068,874
8750,1061,868
8755,1053,868
8760,1071,867
8765,1055,871
8770,1059,859
8775,1050,860
8780,1053,864
8785,1051,860
8790,1036,866
8795,1039,861
8800,1034,857
8805,1017,856
8810,1019,858
8815,1008,854
8820,1010,856
8825,1000,852
8830,998,850
8835,1004,848
8840,990,848
8845,980,844
8850,970,846
8855,964,839
8860,964,839
8865,955,841
8870,950,830
8875,943,832
8880,938,829
8885,920,833
8890,922,823
8895,910,822
8900,896,818
8905,891,823
8910,887,816
8915,873,807
8920,861,806
8925,866,802
8930,857,801
8935,844,789
8940,844,795
8945,830,788
8950,835,788
8955,819,778
8960,810,772
8965,806,767
8970,798,770
8975,790,762
8980,786,756
8985,778,747
8990,771,747
8995,775,745
9000,775,738
9005,770,733
9010,766,728
9015,767,725
9020,757,716
9025,752,713
9030,752,708
9035,748,705
9040,756,698
9045,754,691
9050,746,689
9055,738,681
9060,756,683
9065,754,671
9070,750,666
9075,763,666
9080,756,659
9085,761,661
9090,770,651
9095,778,649
9100,768,647
9105,785,650
9110,783,646
9115,792,644
9120,794,641
9125,804,637
9130,814,638
9135,817,635
9140,825,636
9145,834,636
9150,832,635
9155,845,637
9160,869,640
9165,873,641
9170,884,636
9175,898,635
9180,905,641
9185,911,639
9190,926,643
9195,931,649
9200,945,655
9205,957,657
9210,963,663
9215,978,662
9220,991,670
9225,998,675
9230,1009,679
9235,1022,678
9240,1025,688
9245,1035,691
9250,1049,693
9255,1053,709
9260,1061,709
9265,1073,711
9270,1083,725
9275,1097,726
9280,1102,733
9285,1108,741
9290,1106,750
9295,1123,755
9300,1139,756
9305,1140,764
9310,1140,774
9315,1147,782
9320,1155,789
9325,1165,797
9330,1164,800
9335,1174,809
9340,1171,815
9345,1168,822
9350,1177,827
9355,1177,836
9360,1183,842
9365,1184,845
9370,1186,852
9375,1187,862
9380,1185,863
9385,1188,864
9390,1185,870
9395,1195,882
9400,1190,881
9405,1190,883
9410,1196,889
9415,1177,895
9420,1181,897
9425,1184,904
9430,1176,904
9435,1183,907
9440,1181,907
9445,1174,909
9450,1172,910
9455,1167,917
9460,1165,922
9465,1160,928
9470,1158,919
9475,1153,921
9480,1165,926
9485,1150,918
9490,1143,925
9495,1147,919
9500,1149,920
9505,1140,914
9510,1139,918
9515,1142,920
9520,1133,917
9525,1121,919
9530,1130,915
9535,1125,917
9540,1128,915
9545,1115,912
9550,1111,916
9555,1127,914
9560,1111,903
9565,1108,908
9570,1114,905
9575,1105,908
9580,1104,904
9585,1093,902
9590,1095,901
9595,1089,898
9600,1097,894
9605,1090,892
9610,1091,891
9615,1094,890
9620,1096,890
9625,1084,887
9630,1087,886
9635,1077,877
9640,1086,882
9645,1069,870
9650,1082,876
9655,1080,880
9660,1075,877
9665,1062,875
9670,1063,873
9675,1069,874
9680,1064,867
9685,1068,871
9690,1066,863
9695,1058,865
9700,1048,868
9705,1043,863
9710,1041,860
9715,1040,855
9720,1030,862
9725,1027,853
9730,1020,855
9735,1022,857
9740,1017,856
9745,1008,857
9750,1000,850
9755,1011,853
9760,997,851
9765,983,842
9770,975,846
9775,975,843
9780,966,839
9785,966,837
9790,953,839
9795,941,837
9800,939,835
9805,925,837
9810,929,824
9815,919,826
9820,907,827
9825,893,819
9830,899,815
9835,891,812
9840,884,813
9845,861,809
9850,863,807
9855,856,798
9860,849,800
9865,833,793
9870,835,790
9875,819,787
9880,818,782
9885,811,771
9890,800,767
9895,803,765
9900,802,762
9905,786,757
9910,784,748
9915,780,753
9920,772,740
9925,765,735
9930,771,734
9935,765,723
9940,752,715
9945,758,715
9950,759,708
9955,752,705
9960,756,702
9965,748,697
9970,744,694
9975,750,692
9980,751,684
9985,754,677
9990,759,675
9995,753,676
10000,750,661
10005,754,663
10010,752,655
10015,760,653
10020,766,651
10025,776,649
10030,780,642
10035,783,642
10040,797,645
10045,806,638
10050,803,635
10055,805,633
10060,813,639
10065,831,641
10070,843,635
10075,838,636
10080,861,633
10085,865,637
10090,873,642
10095,885,639
10100,895,640
10105,900,646
10110,920,645
10115,922,643
10120,932,652
10125,947,651
10130,958,662
10135,965,660
10140,975,664
10145,991,668
10150,1003,670
10155,1009,678
10160,1020,682
10165,1028,695
10170,1029,689
10175,1043,699
10180,1062,702
10185,1060,711
10190,1079,712
10195,1079,723
10200,1096,735
10205,1094,735
10210,1103,742
10215,1105,756
10220,1122,758
10225,1139,763
10230,1135,772
10235,1142,780
10240,1145,786
10245,1160,792
10250,1162,795
10255,1160,806
10260,1163,808
10265,1163,818
10270,1177,812
10275,1180,831
10280,1180,830
10285,1186,842
10290,1178,845
10295,1187,853
10300,1194,856
10305,1182,865
10310,1192,866
10315,1186,875
10320,1189,874
10325,1183,887
10330,1190,887
10335,1186,896
10340,1193,892
10345,1182,900
10350,1183,902
10355,1180,907
10360,1189,911
10365,1176,914
10370,1178,905
10375,1177,914
10380,1166,912
10385,1173,913
10390,1169,916
10395,1158,917
10400,1160,920
10405,1157,919
10410,1150,920
10415,1150,921
10420,1140,924
10425,1145,924
10430,1139,922
10435,1136,924
10440,1143,923
10445,1133,918
10450,1131,917
10455,1122,919
10460,1138,916
10465,1115,916
10470,1116,913
10475,1127,907
10480,1110,905
10485,1112,907
10490,1111,911
10495,1110,903
10500,1105,903
10505,1110,902
10510,1106,901
10515,1099,897
10520,1098,896
10525,1100,889
10530,1101,895
10535,1090,890
10540,1086,887
10545,1095,884
10550,1080,880
10555,1088,882
10560,1080,881
10565,1084,881
10570,1083,876
10575,1075,878
10580,1073,878
10585,1076,876
10590,1070,869
10595,1069,871
10600,1051,871
10605,1065,870
10610,1062,870
10615,1058,865
10620,1051,863
10625,1047,864
10630,1050,859
10635,1044,858
10640,1041,854
10645,1037,860
10650,1039,858
10655,1023,858
10660,1026,854
10665,1021,853
10670,1011,847
10675,1003,852
10680,1003,848
10685,988,844
10690,989,845
10695,991,841
10700,974,840
10705,970,844
10710,959,838
10715,962,836
10720,947,831
10725,941,833
10730,936,826
10735,925,829
10740,920,828
10745,908,824
10750,894,820
10755,898,816
10760,886,815
10765,883,806
10770,871,810
10775,869,804
10780,851,805
10785,849,799
10790,850,788
10795,834,788
10800,821,781
10805,813,777
10810,824,773
10815,806,771
10820,806,765
10825,806,755
10830,779,761
10835,786,754
10840,779,739
10845,774,743
10850,767,735
10855,758,733
10860,765,723
10865,753,726
10870,753,720
10875,762,712
10880,743,709
10885,748,700
10890,749,700
10895,754,691
10900,758,687
10905,759,682
10910,753,678
10915,744,678
10920,753,671
10925,760,666
10930,755,665
10935,757,662
10940,768,658
10945,775,649
10950,775,654
10955,785,651
10960,782,646
10965,792,645
10970,800,640
10975,806,634
10980,821,634
10985,834,639
10990,833,633
10995,832,634
11000,851,637
11005,855,639
11010,858,637
11015,883,636
11020,876,638
11025,892,638
11030,904,643
11035,910,643
11040,922,648
11045,938,646
11050,938,651
11055,949,656
11060,957,659
11065,993,663
11070,978,666
11075,999,668
11080,1009,674
11085,1015,681
11090,1029,685
11095,1045,691
11100,1046,703
11105,1055,703
11110,1069,713
11115,1075,725
11120,1075,720
11125,1094,729
11130,1098,741
11135,1112,742
11140,1118,749
11145,1123,751
11150,1125,757
11155,1135,769
11160,1131,775
11165,1146,782
11170,1141,788
11175,1160,796
11180,1165,803
11185,1160,816
11190,1171,820
11195,1173,823
11200,1180,829
11205,1186,833
11210,1186,843
11215,1184,854
11220,1185,850
11225,1179,860
11230,1185,865
11235,1176,869
11240,1188,879
11245,1183,879
11250,1184,883
11255,1188,885
11260,1186,896
11265,1178,896
11270,1192,898
11275,1184,895
11280,1180,905
11285,1173,912
11290,1175,910
11295,1175,909
11300,1177,914
11305,1171,918
11310,1163,923
11315,1165,918
11320,1160,920
11325,1144,922
11330,1163,923
11335,1157,924
11340,1152,922
11345,1150,919
11350,1144,924
11355,1147,921
11360,1137,920
11365,1124,917
11370,1136,913
11375,1123,916
11380,1135,921
11385,1131,916
11390,1124,915
11395,1120,916
11400,1116,913
11405,1115,904
11410,1114,907
11415,1116,907
11420,1111,909
11425,1105,907
11430,1106,902
11435,1097,900
11440,1103,898
11445,1107,900
11450,1102,896
11455,1104,889
11460,1088,890
11465,1096,886
11470,1082,887
11475,1085,887
11480,1092,884
11485,1079,882
11490,1074,882
11495,1077,876
11500,1076,876
11505,1079,874
11510,1064,875
11515,1061,878
11520,1070,870
11525,1070,866
11530,1069,870
11535,1069,865
11540,1061,870
11545,1051,865
11550,1054,864
11555,1051,865
11560,1044,862
11565,1035,858
11570,1040,862
11575,1031,854
11580,1024,857
11585,1018,856
11590,1012,860
11595,1011,854
11600,1006,852
11605,1001,855
11610,995,850
11615,999,844
11620,985,840
11625,970,841
11630,967,841
11635,957,839
11640,961,842
11645,953,834
11650,939,834
11655,933,830
11660,917,828
11665,920,824
11670,905,823
11675,903,821
11680,895,814
11685,881,810
11690,882,807
11695,876,806
11700,860,804
11705,848,794
11710,850,804
11715,844,794
11720,835,792
11725,828,785
11730,826,775
11735,817,779
11740,807,772
11745,802,766
11750,788,763
11755,770,756
11760,788,748
11765,776,749
11770,769,747
11775,764,739
11780,762,732
11785,762,725
11790,764,720
11795,763,708
11800,758,707
11805,746,712
11810,748,703
11815,747,696
11820,744,686
11825,747,684
11830,748,686
11835,743,682
11840,748,664
11845,756,670
11850,758,664
11855,756,661
11860,764,654
11865,772,655
11870,763,647
11875,770,643
11880,768,644
11885,786,645
11890,788,643
11895,802,635
11900,798,636
11905,818,639
11910,827,635
11915,826,635
11920,832,635
11925,853,637
11930,857,637
11935,862,635
11940,871,638
11945,877,639
11950,887,640
11955,913,639
11960,909,648
11965,928,643
11970,927,652
11975,947,651
11980,950,659
11985,963,653
11990,978,664
11995,984,666
12000,1002,671
12005,1011,676
12010,1017,688
12015,1033,694
12020,1034,690
12025,1050,698
12030,1058,708
12035,1060,707
12040,1068,723
12045,1080,727
12050,1106,729
12055,1107,737
12060,1109,741
12065,1121,749
12070,1119,759
12075,1126,760
12080,1138,770
12085,1134,775
12090,1135,781
12095,1149,790
12100,1150,796
12105,1163,805
12110,1168,811
12115,1162,817
12120,1175,824
12125,1175,830
12130,1187,837
12135,1174,847
12140,1177,850
12145,1182,850
12150,1193,858
12155,1190,869
12160,1183,867
12165,1188,871
12170,1194,880
12175,1187,883
12180,1190,885
12185,1185,887
12190,1182,895
12195,1176,897
12200,1187,903
12205,1171,905
12210,1182,910
12215,1177,907
12220,1171,912
12225,1178,912
12230,1177,917
12235,1172,918
12240,1153,922
12245,1168,920
12250,1159,923
12255,1157,921
12260,1150,920
12265,1146,926
12270,1149,926
12275,1147,919
12280,1148,919
12285,1132,921
12290,1130,919
12295,1132,918
12300,1138,923
12305,1133,916
12310,1130,917
12315,1120,916
12320,1119,912
12325,1115,907
12330,1119,914
12335,1113,908
12340,1107,904
12345,1104,906
12350,1100,898
12355,1115,901
12360,1102,897
12365,1103,896
12370,1100,896
12375,1084,899
12380,1094,893
12385,1104,890
12390,1100,887
12395,1103,885
12400,1090,882
12405,1085,881
12410,1091,884
12415,1070,883
12420,1087,878
12425,1076,873
12430,1077,869
12435,1069,873
12440,1066,874
12445,1068,865
12450,1070,871
12455,1062,868
12460,1059,868
12465,1056,866
12470,1060,864
12475,1043,859
12480,1051,858
12485,1050,858
12490,1048,857
12495,1028,862
12500,1024,859
12505,1026,857
12510,1021,856
12515,1007,854
12520,1019,851
12525,1009,852
12530,1006,844
12535,991,849
12540,988,845
12545,975,843
12550,978,841
12555,958,839
12560,956,839
12565,963,840
12570,949,836
12575,942,837
12580,934,829
12585,927,827
12590,907,823
12595,906,820
12600,896,823
12605,896,817
12610,887,814
12615,882,812
12620,863,813
12625,858,803
12630,849,795
12635,841,792
12640,838,790
12645,831,785
12650,829,780
12655,816,778
12660,810,776
12665,808,770
12670,804,765
12675,797,759
12680,785,758
12685,777,756
12690,769,747
12695,768,743
12700,767,737
12705,766,735
12710,766,725
12715,753,716
12720,748,720
12725,753,714
12730,752,705
12735,746,702
12740,744,699
12745,752,696
12750,748,687
12755,745,684
12760,753,673
12765,747,670
12770,744,670
12775,755,663
12780,759,660
12785,760,659
12790,768,655
12795,768,655
12800,767,652
12805,775,640
12810,777,646
12815,794,640
12820,806,639
12825,802,643
12830,813,639
12835,822,633
12840,837,635
12845,837,641
12850,844,636
12855,861,639
12860,860,639
12865,870,634
12870,882,642
12875,896,638
12880,907,646
12885,917,645
12890,924,646
12895,928,652
12900,947,654
12905,959,664
12910,970,663
12915,982,672
12920,988,665
12925,1002,670
12930,1007,677
12935,1015,682
12940,1028,687
12945,1042,690
12950,1041,701
12955,1053,708
12960,1072,711
12965,1077,720
12970,1084,726
12975,1094,729
12980,1101,740
12985,1110,741
12990,1110,756
12995,1126,754
13000,1127,761
13005,1131,770
13010,1156,772
13015,1157,781
13020,1161,791
13025,1158,801
13030,1166,803
13035,1168,811
13040,1165,818
13045,1169,827
13050,1181,832
13055,1177,835
13060,1177,844
13065,1185,849
13070,1182,856
13075,1185,859
13080,1190,865
13085,1190,867
13090,1192,868
13095,1185,882
13100,1190,884
13105,1204,884
13110,1179,886
13115,1186,894
13120,1174,907
13125,1183,900
13130,1180,909
13135,1175,911
13140,1170,915
13145,1175,916
13150,1179,918
13155,1165,917
13160,1166,917
13165,1169,921
13170,1167,918
13175,1169,921
13180,1151,919
13185,1148,916
13190,1154,921
13195,1152,926
13200,1149,917
13205,1136,924
13210,1139,926
13215,1141,924
13220,1130,918
13225,1131,916
13230,1134,917
13235,1123,915
13240,1125,914
13245,1121,911
13250,1117,912
13255,1115,914
13260,1110,905
13265,1099,905
13270,1104,902
13275,1110,900
13280,1109,906
13285,1104,896
13290,1107,896
13295,1089,895
13300,1091,894
13305,1087,892
13310,1097,895
13315,1091,887
13320,1086,882
13325,1088,881
13330,1088,883
13335,1081,881
13340,1073,881
13345,1073,874
13350,1090,879
13355,1082,870
13360,1079,874
13365,1076,875
13370,1072,871
13375,1066,869
13380,1062,865
13385,1060,870
13390,1057,863
13395,1053,872
13400,1047,867
13405,1053,855
13410,1043,866
13415,1034,859
13420,1038,860
13425,1026,863
13430,1025,856
13435,1019,849
13440,1013,854
13445,1008,856
13450,1001,856
13455,1005,849
13460,997,842
13465,993,840
13470,989,841
13475,980,842
13480,971,842
13485,962,835
13490,956,834
13495,940,832
13500,937,833
13505,923,836
13510,920,829
13515,923,822
13520,910,822
13525,894,820
13530,895,814
13535,887,811
13540,874,808
13545,876,812
13550,867,799
13555,850,803
13560,844,790
13565,843,788
13570,829,788
13575,831,783
13580,811,774
13585,818,777
13590,809,776
13595,808,762
13600,789,767
13605,783,757
13610,795,749
13615,780,749
13620,776,738
13625,779,735
13630,769,727
13635,753,726
13640,752,722
13645,772,718
13650,754,704
13655,749,708
13660,752,700
13665,749,692
13670,743,694
13675,756,688
13680,743,683
13685,750,674
13690,751,674
13695,761,669
13700,763,668
13705,766,669
13710,763,659
13715,766,656
13720,770,660
13725,771,648
13730,778,647
13735,789,642
13740,796,645
13745,793,644
13750,804,636
13755,817,635
13760,819,638
13765,826,639
13770,834,635
13775,838,636
13780,848,639
13785,860,640
13790,873,637
13795,882,640
13800,884,642
13805,899,642
13810,922,647
13815,928,650
13820,938,656
13825,943,654
13830,955,655
13835,968,664
13840,987,666
13845,994,668
13850,1001,680
13855,1013,674
13860,1010,683
13865,1031,695
13870,1041,689
13875,1043,702
13880,1052,700
13885,1059,707
13890,1074,718
13895,1072,728
13900,1096,732
13905,1104,739
13910,1106,742
13915,1117,752
13920,1124,757
13925,1122,763
13930,1138,763
13935,1139,772
13940,1141,784
13945,1153,791
13950,1156,794
13955,1155,806
13960,1171,807
13965,1176,817
13970,1171,824
13975,1167,827
13980,1184,834
13985,1172,841
13990,1185,848
13995,1188,847
14000,1187,857
14005,1186,864
14010,1185,873
14015,1186,881
14020,1184,885
14025,1184,881
14030,1187,890
14035,1185,894
14040,1182,892
14045,1179,899
14050,1176,898
14055,1183,905
14060,1185,906
14065,1179,907
14070,1165,908
14075,1174,912
14080,1171,918
14085,1170,919
14090,1163,917
14095,1152,921
14100,1154,919
14105,1162,922
14110,1161,924
14115,1143,920
14120,1144,923
14125,1136,924
14130,1150,922
14135,1143,926
14140,1133,918
14145,1138,919
14150,1133,919
14155,1136,917
14160,1127,910
14165,1120,914
14170,1116,914
14175,1116,913
14180,1112,917
14185,1114,907
14190,1115,904
14195,1112,905
14200,1109,906
14205,1105,898
14210,1112,903
14215,1100,901
14220,1100,892
14225,1100,897
14230,1101,893
14235,1096,887
14240,1099,892
14245,1088,890
14250,1091,885
14255,1081,877
14260,1079,883
14265,1078,883
14270,1084,879
14275,1086,880
14280,1078,873
14285,1076,875
14290,1074,871
14295,1073,870
14300,1070,872
14305,1059,862
14310,1066,870
14315,1059,863
14320,1052,867
14325,1048,859
14330,1044,857
14335,1044,863
14340,1044,861
14345,1028,853
14350,1035,851
14355,1028,861
14360,1022,856
14365,1018,851
14370,1008,857
14375,995,853
14380,1005,851
14385,994,848
14390,985,849
14395,979,845
14400,968,840
14405,968,839
14410,968,838
14415,959,839
14420,951,839
14425,949,832
14430,928,826
14435,920,831
14440,910,829
14445,908,821
14450,896,818
14455,894,813
14460,885,815
14465,883,808
14470,870,807
14475,860,806
14480,860,794
14485,847,793
14490,832,792
14495,840,785
14500,826,781
14505,815,781
14510,816,776
14515,809,769
14520,788,762
14525,795,761
14530,779,755
14535,771,747
14540,784,747
14545,775,742
14550,768,736
14555,760,738
14560,753,729
14565,756,718
14570,750,716
14575,749,708
14580,757,708
14585,741,700
14590,749,690
14595,740,687
14600,743,684
14605,749,682
14610,751,681
14615,749,669
14620,745,672
14625,751,667
14630,753,667
14635,777,652
14640,764,654
14645,769,651
14650,767,652
14655,780,644
14660,791,648
14665,788,643
14670,800,642
14675,796,637
14680,811,637
14685,818,632
14690,826,633
14695,840,637
14700,848,639
14705,860,637
14710,868,636
14715,868,636
14720,879,630
14725,898,642
14730,897,640
14735,915,645
14740,923,640
14745,927,652
14750,948,651
14755,951,656
14760,969,665
14765,974,661
14770,983,675
14775,995,669
14780,1014,675
14785,1025,684
14790,1022,690
14795,1039,691
14800,1054,701
14805,1050,709
14810,1072,710
14815,1070,719
14820,1088,726
14825,1088,728
14830,1105,737
14835,1109,741
14840,1122,752
14845,1130,758
14850,1129,767
14855,1138,771
14860,1140,784
14865,1147,782
14870,1146,788
14875,1158,799
14880,1160,802
14885,1171,809
14890,1169,819
14895,1177,829
14900,1182,830
14905,1177,832
14910,1179,848
14915,1189,846
14920,1188,852
14925,1190,861
14930,1184,864
14935,1195,874
14940,1187,875
14945,1194,883
14950,1187,877
14955,1179,889
14960,1192,891
14965,1184,900
14970,1179,900
14975,1185,899
14980,1179,901
14985,1169,903
14990,1174,909
14995,1182,918
15000,1176,916
15005,1172,916
15010,1162,919
15015,1164,917
15020,1159,920
15025,1162,920
15030,1148,918
15035,1149,925
15040,1140,921
15045,1144,921
15050,1143,922
15055,1147,922
15060,1142,923
15065,1139,915
15070,1147,918
15075,1127,921
15080,1119,914
15085,1123,918
15090,1129,915
15095,1126,913
15100,1122,910
15105,1120,910
15110,1115,915
15115,1116,904
15120,1108,905
15125,1109,903
15130,1112,904
15135,1105,903
15140,1097,893
15145,1100,892
15150,1104,897
15155,1101,893
15160,1082,893
15165,1088,891
15170,1095,885
15175,1091,887
15180,1077,882
15185,1079,883
15190,1076,871
15195,1084,880
15200,1073,883
15205,1077,874
15210,1067,876
15215,1067,875
15220,1065,868
15225,1061,866
15230,1063,877
15235,1059,864
15240,1057,868
15245,1057,865
15250,1045,864
15255,1050,860
15260,1048,858
15265,1038,862
15270,1034,860
15275,1027,852
15280,1026,856
15285,1023,854
15290,1015,853
15295,1009,854
15300,1000,850
15305,997,848
15310,996,846
15315,986,853
15320,985,845
15325,975,844
15330,964,840
15335,956,835
15340,951,840
15345,947,835
15350,934,832
15355,927,827
15360,924,828
15365,921,823
15370,909,818
15375,907,822
15380,894,813
15385,878,816
15390,871,812
15395,880,809
15400,863,802
15405,866,799
15410,845,801
15415,841,794
15420,836,787
15425,819,785
15430,823,781
15435,823,772
15440,801,766
15445,795,765
15450,784,763
15455,785,754
15460,776,751
15465,779,746
15470,777,746
15475,764,736
15480,764,729
15485,763,725
15490,759,716
15495,752,716
15500,753,710
15505,749,709
15510,740,701
15515,750,695
15520,736,688
15525,749,685
15530,741,680
15535,743,674
15540,751,674
15545,745,669
15550,763,668
15555,763,658
15560,756,660
15565,764,658
15570,775,655
15575,779,648
15580,775,648
15585,785,641
15590,788,645
15595,796,634
15600,808,639
15605,810,641
15610,824,640
15615,833,633
15620,843,636
15625,845,636
15630,852,637
15635,874,635
15640,876,639
15645,883,638
15650,890,635
15655,905,642
15660,918,644
15665,923,649
15670,944,650
15675,942,653
15680,962,657
15685,971,660
15690,973,666
15695,1002,667
15700,1002,672
15705,1010,677
15710,1021,685
15715,1025,689
15720,1045,696
15725,1053,699
15730,1056,706
15735,1069,716
15740,1069,718
15745,1081,723
15750,1092,734
15755,1094,738
15760,1106,745
15765,1121,754
15770,1121,757
15775,1128,770
15780,1132,773
15785,1142,776
15790,1153,783
15795,1148,796
15800,1160,799
15805,1157,802
15810,1170,814
15815,1181,818
15820,1176,825
15825,1177,838
15830,1184,837
15835,1177,844
15840,1187,846
15845,1187,854
15850,1186,860
15855,1190,862
15860,1187,866
15865,1187,877
15870,1191,877
15875,1182,885
15880,1187,888
15885,1181,893
15890,1185,894
15895,1186,898
15900,1185,900
15905,1185,909
15910,1180,909
15915,1177,912
15920,1178,914
15925,1171,915
15930,1172,914
15935,1168,918
15940,1166,923
15945,1171,918
15950,1162,922
15955,1151,920
15960,1150,926
15965,1154,931
15970,1140,923
15975,1140,923
15980,1146,918
15985,1144,920
15990,1138,920
15995,1133,916
16000,1120,919
16004,1133,920
16010,1123,917
16015,1127,917
16020,1119,916
16024,1127,911
16030,1104,906
16035,1112,909
16040,1115,904
16045,1106,906
16050,1107,899
16055,1100,905
16059,1101,898
16065,1101,906
16070,1100,892
16075,1097,893
16079,1089,891
16085,1092,890
16090,1098,887
16094,1092,886
16100,1094,885
16105,1089,887
16110,1082,877
16114,1089,883
16120,1077,876
16125,1081,869
16129,1077,870
16135,1076,873
16140,1069,881
16145,1068,874
16149,1072,870
16155,1057,868
16160,1056,863
16165,1053,865
16170,1052,864
16175,1054,866
16180,1049,858
16184,1050,864
16190,1038,864
16195,1022,857
16200,1030,853
16204,1027,859
16210,1013,852
16215,1015,852
16219,992,847
16225,997,852
16230,994,843
16235,990,842
16239,986,844
16245,990,845
16250,982,847
16254,970,842
16260,956,841
16265,954,838
16270,955,834
16274,934,834
16280,935,830
16285,920,826
16290,910,828
16295,901,826
16300,901,819
16305,902,814
16309,885,811
16315,876,809
16320,873,805
16325,868,806
16329,849,799
16335,852,793
16340,829,792
16344,838,791
16350,821,784
16355,825,777
16360,805,782
16364,802,770
16370,799,765
16375,790,759
16379,785,754
16385,781,748
16390,774,744
16395,778,740
16400,768,744
16405,770,731
16410,756,727
16415,759,720
16420,750,714
16425,749,712
16430,755,697
16435,746,703
16440,737,695
16445,749,691
16450,747,687
16455,757,679
16460,743,677
16465,753,675
16470,759,669
16475,756,669
16480,760,667
16485,763,651
16490,767,655
16495,772,650
16500,773,652
16505,786,645
16510,784,641
16515,794,639
16520,806,642
16525,806,636
16530,810,632
16535,820,636
16540,823,630
16545,839,636
16550,847,634
16555,870,634
16560,856,638
16565,872,641
16570,888,644
16575,891,638
16580,903,638
16585,922,645
16590,930,645
16595,930,645
16600,959,656
16605,951,652
16610,968,663
16615,979,662
16620,998,668
16625,997,671
16630,999,680
16635,1015,686
16640,1027,688
16645,1039,697
16650,1046,703
16655,1059,702
16660,1067,710
16665,1070,716
16670,1087,726
16675,1093,733
16680,1100,736
16685,1109,741
16690,1131,753
16695,1127,758
16700,1138,767
16705,1129,771
16710,1146,774
16715,1138,785
16720,1157,792
16725,1156,797
16730,1167,805
16735,1160,810
16740,1177,816
16745,1180,824
16750,1173,829
16755,1185,839
16760,1179,840
16765,1178,839
16770,1191,853
16775,1191,861
16780,1185,869
16785,1184,872
16790,1194,878
16795,1193,879
16800,1192,881
16805,1190,889
16810,1180,893
16815,1197,896
16820,1181,896
16825,1180,903
16830,1187,908
16835,1188,904
16840,1178,910
16845,1170,912
16850,1178,918
16855,1170,913
16860,1175,924
16865,1162,919
16870,1164,915
16875,1163,922
16880,1159,914
16885,1152,925
16890,1146,924
16895,1147,928
16900,1135,920
16905,1135,920
16910,1136,919
16915,1133,915
16920,1131,923
16925,1133,917
16930,1126,918
16935,1125,914
16940,1128,915
16945,1119,912
16950,1112,912
16955,1113,908
16960,1115,904
16965,1110,907
16970,1101,904
16975,1099,903
16980,1108,907
16985,1108,899
16990,1099,897
16995,1100,895
17000,1094,896
17005,1090,891
17010,1097,891
17015,1090,888
17020,1090,885
17025,1091,886
17030,1094,886
17035,1091,884
17040,1088,877
17045,1081,883
17050,1079,883
17055,1077,873
17060,1069,876
17065,1067,872
17070,1063,871
17075,1062,870
17080,1063,868
17085,1049,865
17090,1062,867
17095,1053,863
17100,1045,869
17105,1049,867
17110,1045,856
17115,1037,857
17120,1040,860
17125,1026,863
17130,1031,857
17135,1021,857
17140,1013,850
17145,1011,852
17150,1011,847
17155,994,849
17160,990,847
17165,987,848
17170,982,839
17175,975,846
17180,965,844
17185,968,840
17190,955,841
17195,952,836
17200,937,827
17205,932,831
17210,924,826
17215,916,827
17220,911,824
17225,898,819
17230,892,812
17235,893,813
17240,877,813
17245,863,805
17250,854,802
17255,861,798
17260,848,790
17265,835,794
17270,837,785
17275,820,784
17280,818,780
17285,809,778
17290,815,768
17295,799,762
17300,788,761
17305,789,752
17310,780,754
17315,773,744
17320,768,740
17325,770,737
17330,770,726
17335,753,720
17340,766,721
17345,755,719
17350,755,707
17355,749,708
17360,753,703
17365,749,700
17370,744,690
17375,746,685
17380,751,683
17385,759,679
17390,743,671
17395,764,670
17400,754,660
17405,761,662
17410,755,658
17415,758,652
17420,766,649
17425,778,658
17430,781,647
17435,779,643
17440,798,646
17445,798,645
17450,807,641
17455,818,640
17460,814,637
17465,831,638
17470,839,636
17475,853,641
17480,860,635
17485,866,632
17490,876,640
17495,886,637
17500,898,635
17505,903,640
17510,914,646
17515,925,646
17520,938,647
17525,944,657
17530,958,659
17535,968,664
17540,984,663
17545,991,670
17550,1007,678
17555,1008,677
17560,1015,689
17565,1033,683
17570,1038,689
17575,1051,704
17580,1059,711
17585,1072,712
17590,1086,719
17595,1083,719
17600,1092,732
17605,1091,735
17610,1108,743
17615,1113,750
17620,1135,756
17625,1132,762
17630,1144,772
17635,1140,781
17640,1148,791
17645,1146,796
17650,1157,796
17655,1167,798
17660,1168,814
17665,1169,816
17670,1173,829
17675,1180,829
17680,1181,835
17685,1177,845
17690,1184,849
17695,1185,857
17700,1182,856
17705,1184,864
17710,1186,867
17715,1184,875
17720,1195,877
17725,1189,884
17730,1191,884
17735,1191,892
17740,1194,895
17745,1190,900
17750,1189,905
17755,1179,907
17760,1168,908
17765,1182,909
17770,1181,910
17775,1173,910
17780,1170,916
17785,1165,917
17790,1169,918
17795,1157,921
17800,1166,918
17805,1155,921
17810,1142,923
17815,1157,916
17820,1141,921
17825,1145,920
17830,1135,919
17835,1137,922
17840,1142,916
17845,1133,919
17850,1141,917
17855,1133,922
17860,1127,919
17865,1119,915
17870,1117,915
17875,1116,916
17880,1121,908
17885,1118,913
17890,1114,907
17895,1113,907
17900,1107,902
17905,1110,905
17910,1106,897
17915,1089,896
17920,1102,898
17925,1098,892
17930,1093,894
17935,1098,886
17940,1088,888
17945,1083,886
17950,1087,884
17955,1081,888
17960,1079,879
17965,1081,878
17970,1081,878
17975,1080,876
17980,1075,878
17985,1076,877
17990,1067,872
17995,1070,868
18000,1065,863
18005,1064,866
18010,1061,871
18015,1058,864
18020,1052,863
18025,1048,858
18030,1039,864
18035,1040,859
18040,1046,852
18045,1031,858
18050,1034,852
18055,1027,851
18060,1021,855
18065,1012,858
18070,1021,858
18075,997,851
18080,992,846
18085,993,850
18090,989,848
18095,978,843
18100,974,841
18105,970,839
18110,963,840
18115,959,840
18120,947,839
18125,945,825
18130,933,825
18135,919,829
18140,915,822
18145,905,822
18150,897,820
18155,893,817
18160,881,814
18165,879,805
18170,875,803
18175,864,801
18180,852,797
18185,849,797
18190,839,788
18195,823,789
18200,832,780
18205,828,774
18210,802,773
18215,805,769
18220,794,766
18225,796,754
18230,780,755
18235,781,753
18240,780,748
18245,768,739
18250,776,736
18255,760,727
18260,765,723
18265,762,718
18270,752,714
18275,762,712
18280,753,705
18285,753,702
18290,754,698
18295,750,690
18300,743,689
18305,751,683
18310,752,681
18315,741,675
18320,755,671
18325,760,666
18330,761,661
18335,757,659
18340,776,658
18345,772,647
18350,779,646
18355,779,650
18360,792,644
18365,793,643
18370,807,639
18375,805,635
18380,809,640
18385,822,634
18390,830,635
18395,838,632
18400,850,631
18405,864,639
18410,864,641
18415,872,636
18420,887,641
18425,892,642
18430,908,640
18435,914,641
18440,922,645
18445,945,652
18450,944,656
18455,957,657
18460,963,658
18465,984,664
18470,995,663
18475,996,677
18480,1011,682
18485,1016,681
18490,1015,690
18495,1046,689
18500,1045,694
18505,1060,713
18510,1063,707
18515,1076,717
18520,1080,727
18525,1085,730
18530,1101,735
18535,1107,740
18540,1118,749
18545,1123,755
18550,1125,769
18555,1143,770
18560,1150,778
18565,1148,785
18570,1153,790
18575,1153,797
18580,1160,807
18585,1174,813
18590,1167,816
18595,1179,824
18600,1170,826
18605,1187,838
18610,1182,843
18615,1181,848
18620,1182,860
18625,1185,861
18630,1183,865
18635,1188,875
18640,1191,873
18645,1198,881
18650,1188,885
18655,1188,892
18660,1187,893
18665,1177,895
18670,1188,902
18675,1191,902
18680,1177,909
18685,1182,908
18690,1178,912
18695,1182,914
18700,1174,915
18705,1175,911
18710,1161,920
18715,1163,915
18720,1161,921
18725,1157,924
18730,1153,916
18735,1157,923
18740,1153,922
18745,1152,922
18750,1142,919
18755,1133,931
18760,1134,922
18765,1140,920
18770,1129,919
18775,1126,912
18780,1125,918
18785,1130,919
18790,1116,920
18795,1121,912
18800,1109,917
18805,1104,912
18810,1121,904
18815,1120,904
18820,1110,904
18825,1106,896
18830,1106,901
18835,1106,899
18840,1098,892
18845,1094,899
18850,1096,893
18855,1098,893
18860,1091,888
18865,1096,891
18870,1080,883
18875,1087,887
18880,1078,879
18885,1085,886
18890,1082,877
18895,1071,879
18900,1085,874
18905,1076,877
18910,1073,873
18915,1071,870
18920,1062,873
18925,1061,866
18930,1064,871
18935,1060,866
18940,1056,862
18945,1059,860
18950,1035,867
18955,1058,860
18960,1044,859
18965,1037,858
18970,1032,858
18975,1035,858
18980,1027,855
18985,1019,853
18990,1011,853
18995,1018,852
19000,1000,853
19005,992,845
19010,990,852
19015,970,851
19020,983,850
19025,969,842
19030,970,840
19035,958,838
19040,954,835
19045,941,833
19050,935,834
19055,933,832
19060,912,826
19065,914,822
19070,898,819
19075,899,820
19080,891,815
19085,882,816
19090,868,809
19095,861,805
19100,854,799
19105,849,803
19110,848,801
19115,834,790
19120,833,790
19125,834,784
19130,816,778
19135,814,774
19140,800,769
19145,797,763
19150,795,760
19155,793,753
19160,792,750
19165,777,745
19170,772,744
19175,764,736
19180,757,728
19185,764,723
19190,764,717
19195,760,718
19200,747,711
19205,757,701
19210,752,705
19215,741,693
19220,752,691
19225,747,687
19230,751,684
19235,761,678
19240,755,670
19245,756,668
19250,759,671
19255,755,656
19260,763,656
19265,769,655
19270,776,648
19275,769,653
19280,789,646
19285,791,642
19290,791,646
19295,803,637
19300,803,642
19305,814,637
19310,821,633
19315,825,638
19320,838,635
19325,845,636
19330,862,638
19335,864,638
19340,872,638
19345,892,639
19350,899,639
19355,906,647
19360,909,643
19365,931,649
19370,941,652
19375,946,651
19380,952,653
19385,961,664
19390,983,664
19395,990,669
19400,1003,674
19405,1016,683
19410,1010,683
19415,1027,692
19420,1048,696
19425,1054,697
19430,1060,713
19435,1069,716
19440,1082,719
19445,1088,727
19450,1085,734
19455,1101,737
19460,1102,747
19465,1116,751
19470,1122,756
19475,1122,767
19480,1133,776
19485,1147,778
19490,1148,788
19495,1155,794
19500,1165,804
19505,1164,801
19510,1168,810
19515,1167,817
19520,1168,826
19525,1181,832
19530,1175,833
19535,1187,840
19540,1189,846
19545,1184,855
19550,1194,858
19555,1195,864
19560,1193,870
19565,1187,876
19570,1186,877
19575,1193,885
19580,1183,885
19585,1174,892
19590,1185,896
19595,1195,897
19600,1184,901
19605,1179,907
19610,1177,908
19615,1179,911
19620,1173,911
19625,1174,917
19630,1165,916
19635,1162,915
19640,1166,918
19645,1165,919
19650,1150,922
19655,1154,920
19660,1158,923
19665,1154,914
19670,1138,921
19675,1149,919
19680,1145,925
19685,1137,919
19690,1139,917
19695,1131,922
19700,1129,914
19705,1126,917
19710,1128,916
19715,1127,916
19720,1112,913
19725,1112,909
19730,1111,912
19735,1113,905
19740,1113,907
19745,1108,909
19750,1104,903
19755,1105,903
19760,1102,905
19765,1106,898
19770,1092,892
19775,1097,900
19780,1093,888
19785,1094,885
19790,1084,889
19795,1088,882
19800,1078,883
19805,1087,881
19810,1083,881
19815,1077,878
19820,1080,875
19825,1082,875
19830,1069,878
19835,1085,869
19840,1074,869
19845,1064,871
19850,1060,864
19855,1056,871
19860,1063,870
19865,1060,867
19870,1051,866
19875,1048,865
19880,1032,859
19885,1041,857
19890,1041,855
19895,1040,859
19900,1024,857
19905,1017,856
19910,1016,851
19915,1020,856
19920,1012,854
19925,1010,849
19930,999,851
19935,999,847
19940,980,847
19945,973,844
19950,969,841
19955,971,837
19960,961,840
19965,963,841
19970,946,836
19975,942,839
19980,929,831
19985,932,829
19990,917,831
19995,900,824
20000,893,818
20005,893,816
20010,880,808
20015,880,817
20020,870,803
20025,864,803
20030,853,801
20035,840,797
20040,847,789
20045,835,783
20050,821,782
20055,812,778
20060,813,777
20065,814,769
20070,788,764
20075,790,760
20080,784,760
20085,776,749
20090,776,742
20095,775,742
20100,768,739
20105,765,730
20110,758,725
20115,754,722
20120,759,715
20125,755,711
20130,756,703
20135,750,701
20140,746,695
20145,750,689
20150,744,684
20155,749,685
20160,750,677
20165,748,672
20170,764,667
20175,756,671
20180,753,660
20185,761,659
20190,761,658
20195,772,657
20200,779,653
20205,782,646
20210,789,640
20215,795,638
20220,803,639
20225,806,636
20230,817,637
20235,834,638
20240,838,635
20245,843,639
20250,856,635
20255,855,630
20260,868,637
20265,880,632
20270,887,643
20275,901,640
20280,912,642
20285,920,641
20290,933,649
20295,941,645
20300,943,654
20305,966,660
20310,966,665
20315,970,668
20320,984,668
20325,990,680
20330,999,686
20335,1016,681
20340,1035,693
20345,1048,700
20350,1052,700
20355,1059,705
20360,1072,714
20365,1071,724
20370,1090,724
20375,1098,730
20380,1099,739
20385,1112,747
20390,1102,749
20395,1119,755
20400,1128,768
20405,1137,774
20410,1143,781
20415,1157,787
20420,1155,790
20425,1158,795
20430,1157,808
20435,1163,811
20440,1162,817
20445,1174,822
20450,1177,827
20455,1181,838
20460,1172,844
20465,1180,839
20470,1181,859
20475,1183,862
20480,1194,864
20485,1194,871
20490,1185,880
20495,1191,884
20500,1184,887
20505,1191,889
20510,1188,896
20515,1176,897
20520,1184,897
20525,1170,901
20530,1181,907
20535,1170,910
20540,1180,915
20545,1171,914
20550,1171,910
20555,1172,911
20560,1157,916
20565,1163,915
20570,1154,921
20575,1155,920
20580,1158,919
20585,1152,924
20590,1148,918
20595,1144,923
20600,1153,922
20605,1142,924
20610,1136,926
20615,1138,920
20620,1134,916
20625,1132,922
20630,1123,922
20635,1121,920
20640,1121,913
20645,1112,908
20650,1123,914
20655,1110,908
20660,1112,907
20665,1118,906
20670,1109,906
20675,1096,902
20680,1099,899
20685,1097,899
20690,1113,900
20695,1090,890
20700,1101,893
20705,1102,891
20710,1100,889
20715,1094,885
20720,1086,889
20725,1087,881
20730,1066,881
20735,1087,887
20740,1085,880
20745,1090,879
20750,1073,877
20755,1071,873
20760,1072,871
20765,1072,871
20770,1067,869
20775,1059,865
20780,1052,872
20785,1063,867
20790,1055,862
20795,1052,866
20800,1048,860
20805,1056,864
20810,1048,865
20815,1041,857
20820,1028,858
20825,1023,859
20830,1023,857
20835,1020,853
20840,1013,857
20845,998,856
20850,1007,853
20855,1000,851
20860,993,842
20865,984,843
20870,983,845
20875,973,842
20880,960,838
20885,956,839
20890,953,836
20895,943,835
20900,933,835
20905,930,831
20910,916,826
20915,910,820
20920,912,822
20925,897,815
20930,895,816
20935,878,810
20940,865,806
20945,866,806
20950,865,803
20955,849,804
20960,846,793
20965,837,794
20970,838,788
20975,824,782
20980,813,778
20985,815,779
20990,811,765
20995,790,763
21000,796,759
21005,784,751
21010,781,749
21015,770,740
21020,778,744
21025,765,733
21030,765,729
21035,761,725
21040,750,718
21045,756,714
21050,756,713
21055,742,708
21060,754,694
21065,752,700
21070,748,689
21075,741,689
21080,751,685
21085,758,675
21090,734,674
21095,758,671
21100,759,663
21105,758,660
21110,759,661
21115,769,654
21120,772,651
21125,781,645
21130,780,647
21135,782,646
21140,799,640
21145,802,640
21150,799,641
21155,812,634
21160,825,641
21165,828,642
21170,843,632
21175,847,637
21180,854,639
21185,870,636
21190,879,635
21195,891,637
21200,900,640
21205,906,645
21210,915,644
21215,925,647
21220,936,646
21225,949,653
21230,946,657
21235,964,667
21240,974,667
21245,984,667
21250,995,676
21255,1010,678
21260,1029,684
21265,1031,684
21270,1040,698
21275,1049,699
21280,1053,704
21285,1073,710
21290,1070,721
21295,1088,727
21300,1092,736
21305,1112,741
21310,1106,751
21315,1117,752
21320,1131,759
21325,1126,760
21330,1138,770
21335,1139,778
21340,1154,784
21345,1155,795
21350,1162,798
21355,1160,805
21360,1160,812
21365,1174,821
21370,1168,823
21375,1172,829
21380,1187,835
21385,1177,844
21390,1186,849
21395,1179,849
21400,1187,858
21405,1185,872
21410,1187,868
21415,1199,871
21420,1189,881
21425,1189,885
21430,1180,888
21435,1175,899
21440,1181,900
21445,1188,899
21450,1174,901
21455,1177,901
21460,1177,905
21465,1171,911
21470,1179,914
21475,1176,913
21480,1170,917
21485,1170,922
21490,1155,922
21495,1156,918
21500,1164,924
21505,1150,923
21510,1150,924
21515,1154,925
21520,1143,920
21525,1140,922
21530,1149,916
21535,1136,923
21540,1148,925
21545,1127,918
21550,1123,910
21555,1132,913
21560,1127,914
21565,1124,915
21570,1113,911
21575,1114,911
21580,1114,912
21585,1117,909
21590,1115,908
21595,1108,908
21600,1105,900
21605,1108,903
21610,1104,900
21615,1097,897
21620,1098,895
21625,1101,889
21630,1092,887
21635,1096,886
21640,1087,889
21645,1093,886
21650,1088,883
21655,1075,880
21660,1083,883
21665,1075,876
21670,1079,882
21675,1076,874
21680,1074,872
21685,1071,871
21690,1072,873
21695,1063,868
21700,1064,867
21705,1058,868
21710,1059,872
21715,1064,864
21720,1050,864
21725,1048,861
21730,1053,868
21735,1042,859
21740,1032,862
21745,1030,863
21750,1032,854
21755,1007,849
21760,1020,856
21765,1018,851
21770,1017,853
21775,1007,848
21780,996,850
21785,996,850
21790,990,845
21795,977,843
21800,976,839
21805,968,840
21810,949,841
21815,955,837
21820,941,833
21825,937,831
21830,931,830
21835,924,822
21840,908,823
21845,909,819
21850,901,816
21855,889,818
21860,885,815
21865,870,808
21870,875,814
21875,859,804
21880,847,798
21885,845,796
21890,844,787
21895,832,787
21900,830,779
21905,825,780
21910,810,775
21915,804,771
21920,790,763
21925,790,758
21930,788,757
21935,788,747
21940,773,742
21945,774,739
21950,769,734
21955,757,730
21960,760,724
21965,757,714
21970,755,716
21975,756,705
21980,750,704
21985,744,701
21990,745,694
21995,747,685
22000,752,691
22005,750,680
22010,752,673
22015,754,671
22020,744,675
22025,755,663
22030,763,659
22035,766,660
22040,764,655
22045,772,655
22050,778,648
22055,783,650
22060,782,640
22065,795,645
22070,794,637
22075,809,640
22080,819,639
22085,816,639
22090,827,631
22095,838,637
22100,851,633
22105,854,638
22110,868,636
22115,868,638
22120,879,638
22125,906,645
22130,902,641
22135,927,648
22140,933,649
22145,945,653
22150,955,649
22155,953,658
22160,965,663
22165,976,666
22170,990,675
22175,995,678
22180,1004,683
22185,1018,683
22190,1023,690
22195,1041,692
22200,1046,702
22205,1064,707
22210,1078,708
22215,1073,719
22220,1083,728
22225,1099,732
22230,1103,737
22235,1109,744
22240,1122,758
22245,1116,762
22250,1130,766
22255,1125,770
22260,1139,777
22265,1155,788
22270,1148,792
22275,1155,802
22280,1156,803
22285,1158,808
22290,1175,815
22295,1180,825
22300,1176,832
22305,1180,832
22310,1177,846
22315,1183,847
22320,1190,856
22325,1182,858
22330,1180,867
22335,1178,878
22340,1189,872
22345,1190,879
22350,1187,882
22355,1185,889
22360,1192,893
22365,1177,890
22370,1182,904
22375,1181,906
22380,1172,904
22385,1177,905
22390,1174,912
22395,1181,907
22400,1167,919
22405,1166,919
22410,1173,922
22415,1174,927
22420,1163,923
22425,1166,915
22430,1161,920
22435,1144,920
22440,1157,927
22445,1151,919
22450,1146,924
22455,1136,919
22460,1133,923
22465,1140,917
22470,1130,921
22475,1130,915
22480,1124,916
22485,1118,919
22490,1125,911
22495,1117,917
22500,1120,912
22505,1122,912
22510,1112,913
22515,1122,908
22520,1109,907
22525,1110,905
22530,1113,905
22535,1101,898
22540,1104,897
22545,1097,897
22550,1097,890
22555,1098,896
22560,1089,888
22565,1088,893
22570,1092,883
22575,1078,886
22580,1080,887
22585,1089,887
22590,1085,879
22595,1075,874
22600,1074,871
22605,1068,876
22610,1075,873
22615,1075,870
22620,1065,871
22625,1067,869
22630,1060,870
22635,1073,874
22640,1059,864
22645,1055,859
22650,1049,869
22655,1044,862
22660,1040,860
22665,1045,859
22670,1022,860
22675,1024,851
22680,1025,856
22685,1031,855
22690,1009,855
22695,1015,856
22700,1004,854
22705,1001,846
22710,994,854
22715,981,845
22720,988,847
22725,973,840
22730,962,842
22735,953,841
22740,948,837
22745,943,833
22750,940,835
22755,925,833
22760,919,825
22765,911,820
22770,920,813
22775,893,819
22780,889,815
22785,880,805
22790,880,802
22795,869,802
22800,866,803
22805,844,797
22810,845,798
22815,840,787
22820,829,787
22825,824,777
22830,813,781
22835,806,771
22840,800,773
22845,795,767
22850,794,759
22855,793,760
22860,772,752
22865,781,746
22870,766,735
22875,760,735
22880,755,731
22885,756,725
22890,753,721
22895,760,717
22900,754,705
22905,761,703
22910,740,704
22915,753,690
22920,745,692
22925,751,683
22930,754,679
22935,751,677
22940,743,671
22945,748,673
22950,761,664
22955,747,662
22960,763,657
22965,772,653
22970,765,652
22975,776,650
22980,788,651
22985,788,645
22990,792,645
22995,800,635
23000,805,631
23005,806,636
23010,822,634
23015,828,635
23020,847,628
23025,841,641
23030,867,633
23035,869,634
23040,873,638
23045,895,641
23050,902,643
23055,909,641
23060,925,642
23065,934,649
23070,940,646
23075,939,656
23080,962,660
23085,976,661
23090,976,668
23095,992,673
23100,988,677
23105,1020,681
23110,1016,684
23115,1034,685
23120,1040,697
23125,1045,701
23130,1062,704
23135,1066,714
23140,1077,720
23145,1071,718
23150,1097,732
23155,1103,746
23160,1112,743
23165,1122,756
23170,1116,760
23175,1124,769
23180,1130,775
23185,1138,778
23190,1150,783
23195,1160,791
23200,1158,801
23205,1164,809
23210,1159,812
23215,1171,820
23220,1178,824
23225,1160,833
23230,1188,839
23235,1185,852
23240,1184,853
23245,1188,855
23250,1185,864
23255,1195,860
23260,1190,872
23265,1192,879
23270,1193,875
23275,1183,885
23280,1185,890
23285,1190,896
23290,1180,897
23295,1193,903
23300,1186,903
23305,1180,908
23310,1179,908
23315,1172,914
23320,1168,916
23325,1179,917
23330,1171,919
23335,1169,919
23340,1163,917
23345,1166,923
23350,1161,919
23355,1153,918
23360,1149,920
23365,1155,922
23370,1152,922
23375,1143,922
23380,1138,925
23385,1136,924
23390,1131,915
23395,1130,922
23400,1127,919
23405,1130,915
23410,1126,917
23415,1114,917
23420,1124,915
23425,1109,917
23430,1117,915
23435,1103,907
23440,1107,902
23445,1108,906
23450,1108,901
23455,1101,900
23460,1101,897
23465,1105,890
23470,1090,899
23475,1099,893
23480,1097,898
23485,1106,888
23490,1087,891
23495,1085,887
23500,1089,884
23505,1086,891
23510,1081,881
23515,1079,879
23520,1080,879
23525,1079,876
23530,1073,872
23535,1075,871
23540,1067,873
23545,1062,872
23550,1062,865
23555,1065,869
23560,1050,866
23565,1061,868
23570,1052,858
23575,1048,859
23580,1044,859
23585,1038,864
23590,1035,862
23595,1028,859
23600,1024,856
23605,1020,856
23610,1023,853
23615,1014,853
23620,1017,855
23625,995,850
23630,991,848
23635,988,850
23640,987,845
23645,978,844
23650,966,839
23655,968,842
23660,962,839
23665,952,831
23670,940,832
23675,934,837
23680,927,830
23685,923,821
23690,920,828
23695,904,818
23700,896,822
23705,885,812
23710,886,810
23715,872,810
23720,870,802
23725,867,805
23730,849,798
23735,846,795
23740,837,794
23745,841,791
23750,825,783
23755,819,778
23760,804,772
23765,812,771
23770,801,763
23775,789,757
23780,789,758
23785,781,744
23790,774,747
23795,782,739
23800,771,733
23805,749,727
23810,754,720
23815,759,714
23820,759,715
23825,751,714
23830,751,701
23835,740,701
23840,758,696
23845,749,684
23850,745,690
23855,752,682
23860,754,678
23865,755,675
23870,755,669
23875,750,662
23880,759,665
23885,763,659
23890,768,659
23895,767,653
23900,781,649
23905,773,647
23910,791,646
23915,798,646
23920,796,640
23925,804,632
23930,813,637
23935,820,628
23940,836,640
23945,843,631
23950,856,631
23955,856,633
23960,859,638
23965,878,641
23970,879,640
23975,887,644
23980,905,646
23985,913,644
23990,923,647
23995,941,652
24000,955,655
24005,950,663
24010,961,668
24015,990,664
24020,990,673
24025,998,672
24030,1018,679
24035,1023,680
24040,1032,693
24045,1046,696
24050,1046,703
24055,1053,703
24060,1070,712
24065,1080,721
24070,1077,728
24075,1086,729
24080,1106,736
24085,1110,745
24090,1117,751
24095,1125,764
24100,1134,764
24105,1134,772
24110,1138,782
24115,1150,789
24120,1160,792
24125,1159,799
24130,1171,802
24135,1168,809
24140,1164,819
24145,1172,824
24150,1180,830
24155,1189,835
24160,1186,843
24165,1184,851
24170,1182,860
24175,1183,860
24180,1186,862
24185,1189,871
24190,1183,878
24195,1186,883
24200,1188,887
24205,1183,888
24210,1182,894
24215,1177,899
24220,1186,895
24225,1172,905
24230,1181,908
24235,1172,909
24240,1176,914
24245,1171,913
24250,1171,919
24255,1158,918
24260,1164,926
24265,1163,921
24270,1161,921
24275,1159,918
24280,1156,921
24285,1155,924
24290,1152,919
24295,1141,926
24300,1146,923
24305,1139,920
24310,1143,925
24315,1135,921
24320,1131,922
24325,1127,918
24330,1127,915
24335,1118,908
24340,1121,911
24345,1126,911
24350,1117,910
24355,1118,906
24360,1115,912
24365,1118,909
24370,1100,905
24375,1110,902
24380,1104,897
24385,1108,900
24390,1103,897
24395,1087,894
24400,1097,896
24405,1095,887
24410,1092,887
24415,1093,892
24420,1089,888
24425,1079,882
24430,1082,878
24435,1084,879
24440,1084,879
24445,1081,878
24450,1078,876
24455,1074,873
24460,1071,874
24465,1069,874
24470,1071,869
24475,1068,869
24480,1065,863
24485,1067,866
24490,1053,867
24495,1052,870
24500,1047,858
24505,1046,860
24510,1039,863
24515,1047,860
24520,1030,854
24525,1031,854
24530,1032,858
24535,1023,851
24540,1014,850
24545,1011,856
24550,1006,851
24555,998,851
24560,990,849
24565,978,847
24570,987,843
24575,967,841
24580,954,844
24585,955,837
24590,939,836
24595,944,838
24600,931,832
24605,933,828
24610,920,822
24615,910,829
24620,907,822
24625,902,821
24630,885,814
24635,885,811
24640,877,806
24645,871,810
24650,866,800
24655,852,802
24660,847,793
24665,847,791
24670,824,792
24675,831,777
24680,815,771
24685,810,774
24690,797,761
24695,809,763
24700,796,760
24705,777,750
24710,782,746
24715,782,745
24720,778,741
24725,768,735
24730,756,728
24735,771,723
24740,763,719
24745,760,718
24750,752,714
24755,743,700
24760,756,695
24765,752,692
24770,752,694
24775,735,687
24780,749,685
24785,747,677
24790,753,671
24795,763,670
24800,754,668
24805,760,658
24810,763,656
24815,769,654
24820,781,648
24825,789,650
24830,777,640
24835,781,646
24840,797,639
24845,804,641
24850,816,633
24855,819,641
24860,818,635
24865,832,637
24870,852,634
24875,841,633
24880,863,637
24885,859,636
24890,878,634
24895,887,639
24900,904,641
24905,913,644
24910,909,646
24915,934,647
24920,938,652
24925,953,655
24930,963,661
24935,969,667
24940,978,665
24945,991,671
24950,999,681
24955,1016,683
24960,1026,685
24965,1025,690
24970,1036,699
24975,1051,702
24980,1063,706
24985,1074,711
24990,1081,725
24995,1086,726
25000,1095,729
25005,1108,742
25010,1113,748
25015,1119,757
25020,1132,754
25025,1128,764
25030,1139,774
25035,1137,777
25040,1143,791
25045,1154,792
25050,1157,799
25055,1161,805
25060,1168,816
25065,1163,822
25070,1172,825
25075,1176,834
25080,1187,844
25085,1183,845
25090,1183,850
25095,1189,853
25100,1197,856
25105,1187,863
25110,1185,872
25115,1186,877
25120,1195,879
25125,1190,884
25130,1196,894
25135,1187,892
25140,1184,897
25145,1181,894
25150,1180,903
25155,1177,909
25160,1181,908
25165,1174,916
25170,1170,916
25175,1167,914
25180,1174,918
25185,1169,917
25190,1159,917
25195,1163,914
25200,1147,924
25205,1150,924
25210,1154,922
25215,1153,924
25220,1151,926
25225,1136,926
25230,1153,921
25235,1144,922
25240,1140,919
25245,1136,915
25250,1128,922
25255,1131,917
25260,1125,911
25265,1127,910
25270,1130,917
25275,1113,913
25280,1112,908
25285,1099,906
25290,1104,907
25295,1112,905
25300,1107,902
25305,1106,899
25310,1106,901
25315,1104,894
25320,1101,900
25325,1094,886
25330,1093,881
25335,1094,890
25340,1087,894
25345,1089,882
25350,1099,887
25355,1084,885
25360,1094,882
25365,1077,874
25370,1084,875
25375,1072,876
25380,1083,873
25385,1064,871
25390,1068,874
25395,1075,870
25400,1065,867
25405,1059,873
25410,1066,867
25415,1052,867
25420,1060,863
25425,1043,863
25430,1046,862
25435,1043,858
25440,1042,857
25445,1034,853
25450,1030,857
25455,1033,862
25460,1017,853
25465,1012,853
25470,1010,849
25475,1006,851
25480,993,851
25485,991,847
25490,987,846
25495,978,847
25500,975,840
25505,975,841
25510,957,839
25515,951,834
25520,942,831
25525,931,832
25530,919,828
25535,920,824
25540,916,828
25545,915,827
25550,909,817
25555,890,814
25560,881,811
25565,875,811
25570,873,806
25575,862,800
25580,852,798
25585,846,789
25590,838,788
25595,829,787
25600,832,780
25605,811,774
25610,818,768
25615,803,767
25620,800,763
25625,790,762
25630,789,753
25635,775,746
25640,778,739
25645,770,737
25650,766,736
25655,771,730
25660,755,726
25665,756,720
25670,754,714
25675,750,710
25680,750,703
25685,745,697
25690,751,692
25695,757,688
25700,746,682
25705,745,680
25710,755,676
25715,763,674
25720,758,671
25725,759,669
25730,766,661
25735,756,657
25740,770,652
25745,771,654
25750,776,646
25755,781,643
25760,789,643
25765,798,640
25770,808,635
25775,807,639
25780,819,636
25785,829,642
25790,845,635
25795,836,633
25800,847,632
25805,859,641
25810,869,637
25815,874,638
25820,879,642
25825,897,640
25830,906,645
25835,920,646
25840,927,648
25845,942,650
25850,957,654
25855,964,657
25860,970,660
25865,983,665
25870,998,671
25875,1005,680
25880,1011,678
25885,1024,679
25890,1035,694
25895,1036,702
25900,1054,698
25905,1060,705
25910,1069,712
25915,1079,723
25920,1092,731
25925,1099,731
25930,1103,741
25935,1113,755
25940,1116,759
25945,1122,762
25950,1136,770
25955,1132,774
25960,1146,779
25965,1151,788
25970,1159,799
25975,1157,798
25980,1162,809
25985,1173,817
25990,1182,816
25995,1180,825
26000,1176,830
26005,1186,841
26010,1182,844
26015,1187,850
26020,1191,855
26025,1199,865
26030,1190,862
26035,1189,872
26040,1189,878
26045,1191,884
26050,1188,882
26055,1189,894
26060,1177,895
26065,1182,899
26070,1190,902
26075,1180,906
26080,1177,906
26085,1183,913
26090,1172,915
26095,1180,914
26100,1170,920
26105,1165,914
26110,1164,921
26115,1161,917
26120,1156,920
26125,1156,921
26130,1149,921
26135,1156,921
26140,1145,920
26145,1143,921
26150,1144,922
26155,1137,920
26160,1140,919
26165,1135,917
26170,1129,921
26175,1125,920
26180,1135,919
26185,1121,919
26190,1120,916
26195,1124,914
26200,1121,912
26205,1115,910
26210,1104,909
26215,1102,910
26220,1104,904
26225,1109,902
26230,1101,903
26235,1111,899
26240,1097,900
26245,1098,902
26250,1104,898
26255,1096,895
26260,1086,889
26265,1096,886
26270,1088,887
26275,1085,885
26280,1087,878
26285,1086,880
26290,1074,881
26295,1079,873
26300,1077,879
26305,1085,875
26310,1073,869
26315,1062,872
26320,1066,866
26325,1058,866
26330,1067,864
26335,1059,865
26340,1053,862
26345,1051,863
26350,1048,862
26355,1052,864
26360,1034,859
26365,1034,858
26370,1037,861
26375,1030,854
26380,1020,855
26385,1023,856
26390,1014,852
26395,1007,853
26400,1006,850
26405,1004,850
26410,980,848
26415,983,846
26420,968,843
26425,974,842
26430,967,837
26435,944,834
26440,946,835
26445,941,835
26450,935,829
26455,932,829
26460,920,824
26465,916,828
26470,905,821
26475,898,816
26480,890,817
26485,882,807
26490,879,815
26495,871,806
26500,865,799
26505,854,793
26510,849,794
26515,844,793
26520,831,783
26525,821,780
26530,818,772
26535,810,772
26540,802,769
26545,795,763
26550,789,756
26555,779,754
26560,779,748
26565,776,739
26570,771,736
26575,774,733
26580,763,721
26585,765,722
26590,757,716
26595,743,717
26600,747,706
26605,750,706
26610,747,701
26615,744,696
26620,752,692
26625,747,685
26630,746,683
26635,750,674
26640,755,671
26645,753,669
26650,760,664
26655,758,660
26660,761,659
26665,773,655
26670,777,647
26675,769,654
26680,780,645
26685,787,647
26690,801,645
26695,803,635
26700,810,638
26705,809,642
26710,820,636
26715,830,636
26720,845,639
26725,856,637
26730,857,630
26735,864,637
26740,871,638
26745,877,642
26750,901,640
26755,921,647
26760,925,647
26765,929,650
26770,933,654
26775,950,658
26780,957,653
26785,984,661
26790,971,666
26795,989,672
26800,1003,679
26805,1011,680
26810,1030,686
26815,1030,694
26820,1052,692
26825,1052,706
26830,1060,707
26835,1063,714
26840,1089,722
26845,1089,727
26850,1103,729
26855,1099,741
26860,1109,746
26865,1122,753
26870,1122,758
26875,1134,764
26880,1143,780
26885,1144,779
26890,1147,784
26895,1160,795
26900,1162,803
26905,1166,810
26910,1175,818
26915,1175,819
26920,1179,832
26925,1178,833
26930,1177,839
26935,1177,843
26940,1180,851
26945,1187,855
26950,1187,861
26955,1185,863
26960,1181,875
26965,1191,875
26970,1183,881
26975,1186,889
26980,1182,895
26985,1177,891
26990,1189,893
26995,1183,903
27000,1177,904
27005,1176,904
27010,1173,906
27015,1175,909
27020,1171,916
27025,1165,921
27030,1172,913
27035,1168,919
27040,1169,922
27045,1157,924
27050,1156,923
27055,1145,920
27060,1148,921
27065,1147,925
27070,1134,924
27075,1134,925
27080,1136,920
27085,1139,919
27090,1126,920
27095,1123,924
27100,1133,920
27105,1126,919
27110,1119,911
27115,1120,913
27120,1120,918
27125,1118,909
27130,1122,913
27135,1112,910
27140,1108,900
27145,1108,904
27150,1104,903
27155,1105,899
27160,1091,898
27165,1102,897
27170,1098,898
27175,1088,893
27180,1097,893
27185,1093,887
27190,1086,886
27195,1084,884
27200,1093,878
27205,1085,885
27210,1083,881
27215,1072,880
27220,1077,882
27225,1073,878
27230,1078,881
27235,1076,871
27240,1072,869
27245,1066,870
27250,1056,869
27255,1058,867
27260,1053,866
27265,1064,862
27270,1045,863
27275,1047,862
27280,1042,863
27285,1045,857
27290,1043,862
27295,1032,856
27300,1032,858
27305,1028,851
27310,1016,855
27315,1012,854
27320,1007,851
27325,1009,852
27330,996,848
27335,979,846
27340,986,846
27345,972,848
27350,970,841
27355,961,842
27360,963,839
27365,947,834
27370,948,835
27375,935,836
27380,921,835
27385,916,823
27390,913,822
27395,899,822
27400,898,817
27405,901,818
27410,886,815
27415,881,807
27420,866,801
27425,856,801
27430,848,796
27435,845,793
27440,847,796
27445,833,785
27450,830,782
27455,815,772
27460,801,778
27465,797,772
27470,796,766
27475,786,760
27480,787,751
27485,778,744
27490,771,742
27495,776,738
27500,761,729
27505,766,731
27510,769,718
27515,761,715
27520,751,718
27525,751,712
27530,739,703
27535,751,697
27540,740,693
27545,754,690
27550,753,681
27555,751,680
27560,742,670
27565,759,672
27570,756,668
27575,751,663
27580,763,657
27585,769,654
27590,771,653
27595,772,657
27600,776,646
27605,776,642
27610,789,642
27615,794,640
27620,805,640
27625,809,642
27630,823,637
27635,830,633
27640,840,635
27645,838,633
27650,850,635
27655,857,636
27660,865,637
27665,882,638
27670,900,640
27675,899,642
27680,907,645
27685,922,649
27690,934,645
27695,937,649
27700,960,655
27705,964,664
27710,964,661
27715,988,668
27720,997,670
27725,1002,672
27730,1010,676
27735,1022,687
27740,1036,692
27745,1041,696
27750,1058,707
27755,1067,714
27760,1077,715
27765,1089,718
27770,1086,726
27775,1091,735
27780,1106,738
27785,1114,747
27790,1110,753
27795,1114,761
27800,1136,768
27805,1137,770
27810,1141,782
27815,1150,786
27820,1152,795
27825,1166,799
27830,1165,807
27835,1163,810
27840,1171,825
27845,1166,825
27850,1182,831
27855,1167,832
27860,1184,844
27865,1179,853
27870,1185,858
27875,1189,864
27880,1186,867
27885,1190,874
27890,1188,873
27895,1188,880
27900,1185,887
27905,1184,891
27910,1184,897
27915,1182,898
27920,1178,904
27925,1183,906
27930,1186,907
27935,1173,908
27940,1180,918
27945,1171,915
27950,1169,912
27955,1174,919
27960,1167,919
27965,1164,922
27970,1163,921
27975,1146,922
27980,1153,927
27985,1153,924
27990,1147,923
27995,1144,922
28000,1145,924
28005,1140,920
28010,1138,917
28015,1136,920
28020,1125,916
28025,1128,911
28030,1129,919
28035,1121,914
28040,1119,917
28045,1117,913
28050,1121,908
28055,1121,909
28060,1111,912
28065,1109,902
28070,1105,898
28075,1112,907
28080,1096,898
28085,1095,897
28090,1103,895
28095,1101,896
28100,1099,893
28105,1095,887
28110,1086,894
28115,1083,881
28120,1089,884
28125,1086,888
28130,1093,880
28135,1078,884
28140,1086,879
28145,1082,883
28150,1083,870
28155,1083,879
28160,1071,871
28165,1066,871
28170,1072,867
28175,1059,869
28180,1051,860
28185,1059,864
28190,1049,859
28195,1052,867
28200,1039,866
28205,1043,860
28210,1036,862
28215,1030,853
28220,1038,860
28225,1025,855
28230,1023,851
28235,1027,857
28240,1011,853
28245,1009,849
28250,1003,849
28255,1001,847
28260,993,853
28265,990,843
28270,977,843
28275,970,846
28280,967,839
28285,955,837
28290,949,844
28295,948,832
28300,933,834
28305,935,827
28310,912,828
28315,905,825
28320,895,819
28325,894,822
28330,885,811
28335,876,812
28340,877,808
28345,870,802
28350,858,800
28355,846,799
28360,854,795
28365,836,783
28370,829,780
28375,825,780
28380,821,779
28385,812,770
28390,801,771
28395,788,759
28400,784,760
28405,781,755
28410,777,746
28415,778,744
28420,772,742
28425,769,730
28430,767,733
28435,758,720
28440,748,717
28445,761,716
28450,752,705
28455,752,700
28460,747,698
28465,753,696
28470,744,692
28475,749,685
28480,742,681
28485,753,681
28490,752,678
28495,752,665
28500,758,664
28505,754,660
28510,760,657
28515,769,654
28520,763,654
28525,781,644
28530,779,648
28535,791,645
28540,793,634
28545,800,637
28550,806,641
28555,809,638
28560,815,634
28565,830,637
28570,842,635
28575,854,636
28580,853,634
28585,865,638
28590,882,636
28595,888,638
28600,899,643
28605,904,648
28610,920,641
28615,928,648
28620,942,650
28625,947,653
28630,970,659
28635,969,662
28640,981,666
28645,986,672
28650,1006,678
28655,1011,682
28660,1025,685
28665,1036,692
28670,1041,701
28675,1060,708
28680,1056,709
28685,1062,714
28690,1080,722
28695,1083,725
28700,1103,734
28705,1101,741
28710,1117,743
28715,1115,759
28720,1127,754
28725,1141,764
28730,1147,775
28735,1138,777
28740,1139,786
28745,1155,794
28750,1161,801
28755,1161,810
28760,1165,817
28765,1170,817
28770,1164,828
28775,1181,828
28780,1188,843
28785,1185,845
28790,1191,853
28795,1185,862
28800,1186,859
28805,1180,865
28810,1199,872
28815,1187,876
28820,1185,882
28825,1182,885
28830,1181,888
28835,1176,900
28840,1187,900
28845,1180,900
28850,1185,904
28855,1181,905
28860,1179,913
28865,1179,915
28870,1166,913
28875,1168,916
28880,1180,916
28885,1159,917
28890,1168,919
28895,1163,926
28900,1158,925
28905,1152,922
28910,1156,922
28915,1149,921
28920,1137,925
28925,1133,917
28930,1133,923
28935,1142,918
28940,1138,919
28945,1135,924
28950,1120,918
28955,1122,917
28960,1113,917
28965,1124,916
28970,1122,909
28975,1117,913
28980,1111,911
28985,1112,910
28990,1111,909
28995,1107,904
29000,1106,903
29005,1101,906
29010,1099,899
29015,1107,897
29020,1105,887
29025,1094,894
29030,1084,888
29035,1088,890
29040,1089,887
29045,1092,886
29050,1095,886
29055,1092,885
29060,1081,884
29065,1070,884
29070,1066,872
29075,1077,878
29080,1074,869
29085,1070,878
29090,1075,871
29095,1062,874
29100,1068,863
29105,1065,865
29110,1055,862
29115,1052,866
29120,1058,861
29125,1046,860
29130,1041,864
29135,1050,862
29140,1038,859
29145,1029,860
29150,1026,861
29155,1024,858
29160,1016,853
29165,1017,854
29170,1012,853
29175,998,852
29180,991,848
29185,988,846
29190,982,847
29195,969,851
29200,965,840
29205,971,839
29210,957,840
29215,957,832
29220,946,837
29225,938,825
29230,919,827
29235,922,823
29240,907,826
29245,911,821
29250,896,818
29255,884,813
29260,878,810
29265,876,808
29270,864,801
29275,857,801
29280,847,797
29285,843,793
29290,834,796
29295,832,784
29300,824,781
29305,816,774
29310,807,767
29315,801,763
29320,802,763
29325,797,764
29330,785,750
29335,777,746
29340,767,743
29345,771,738
29350,764,734
29355,762,726
29360,761,725
29365,762,722
29370,759,717
29375,753,700
29380,745,701
29385,750,702
29390,743,694
29395,742,689
29400,742,685
29405,743,678
29410,747,675
29415,747,669
29420,750,670
29425,748,663
29430,763,658
29435,758,656
29440,765,653
29445,766,646
29450,772,647
29455,782,649
29460,794,638
29465,790,644
29470,811,640
29475,802,637
29480,822,634
29485,822,641
29490,838,643
29495,846,637
29500,847,637
29505,863,637
29510,869,642
29515,873,648
29520,897,644
29525,901,640
29530,910,637
29535,917,650
29540,932,649
29545,929,650
29550,946,653
29555,964,659
29560,965,664
29565,979,665
29570,986,670
29575,995,672
29580,1019,676
29585,1022,684
29590,1022,687
29595,1041,692
29600,1053,706
29605,1061,708
29610,1073,718
29615,1082,717
29620,1085,729
29625,1092,734
29630,1106,739
29635,1101,743
29640,1117,752
29645,1125,759
29650,1143,766
29655,1145,771
29660,1142,776
29665,1138,785
29670,1160,795
29675,1153,801
29680,1161,809
29685,1176,811
29690,1174,816
29695,1174,826
29700,1166,834
29705,1178,839
29710,1181,845
29715,1188,848
29720,1175,859
29725,1191,860
29730,1190,868
29735,1193,872
29740,1190,877
29745,1189,880
29750,1195,887
29755,1181,889
29760,1185,894
29765,1190,902
29770,1181,901
29775,1180,904
29780,1177,908
29785,1181,910
29790,1174,913
29795,1170,911
29800,1176,914
29805,1179,915
29810,1166,916
29815,1165,915
29820,1159,917
29825,1162,923
29830,1156,923
29835,1147,920
29840,1162,923
29845,1151,919
29850,1141,921
29855,1142,923
29860,1135,920
29865,1131,921
29870,1135,917
29875,1132,913
29880,1136,910
29885,1135,914
29890,1120,908
29895,1117,915
29900,1122,910
29905,1119,909
29910,1114,908
29915,1113,899
29920,1106,904
29925,1104,900
29930,1097,902
29935,1105,898
29940,1106,900
29945,1103,903
29950,1095,890
29955,1094,887
29960,1087,889
29965,1082,893
29970,1084,887
29975,1084,883
29980,1090,879
29985,1085,877
29990,1080,883
29995,1079,876
30000,1076,871
30005,1075,870
30010,1066,873
30015,1074,877
30020,1063,868
30025,1066,871
30030,1064,862
30035,1057,865
30040,1056,863
30045,1056,866
30050,1048,861
30055,1043,858
30060,1041,857
30065,1041,860
30070,1036,852
30075,1024,864
30080,1022,854
30085,1011,854
30090,1017,849
30095,1000,848
30100,1003,847
30105,992,851
30110,992,847
30115,981,847
30120,979,841
30125,965,841
30130,969,840
30135,956,840
30140,954,838
30145,942,838
30150,936,826
30155,919,834
30160,917,823
30165,908,824
30170,900,826
30175,898,818
30180,892,810
30185,874,811
30190,879,808
30195,866,801
30200,860,801
30205,843,797
30210,853,795
30215,831,790
30220,831,784
30225,824,784
30230,817,778
30235,812,772
30240,805,771
30245,796,766
30250,799,758
30255,790,752
30260,778,747
30265,775,743
30270,764,736
30275,767,731
30280,760,727
30285,760,717
30290,745,720
30295,751,714
30300,753,707
30305,738,697
30310,748,697
30315,743,697
30320,746,686
30325,746,684
30330,751,681
30335,745,675
30340,756,669
30345,756,666
30350,747,666
30355,762,662
30360,759,653
30365,771,657
30370,772,649
30375,775,652
30380,787,647
30385,785,647
30390,793,641
30395,806,636
30400,810,641
30405,816,639
30410,829,637
30415,841,639
30420,843,640
30425,844,634
30430,858,632
30435,868,638
30440,887,642
30445,892,638
30450,907,644
30455,911,646
30460,921,646
30465,934,649
30470,940,653
30475,953,654
30480,962,658
30485,966,661
30490,986,667
30495,987,669
30500,1010,674
30505,1020,686
30510,1018,684
30515,1023,695
30520,1040,695
30525,1054,703
30530,1062,707
30535,1073,713
30540,1085,715
30545,1082,723
30550,1099,735
30555,1108,741
30560,1119,749
30565,1122,751
30570,1121,762
30575,1131,767
30580,1129,772
30585,1144,780
30590,1146,791
30595,1159,798
30600,1156,798
30605,1159,812
30610,1166,814
30615,1166,818
30620,1176,822
30625,1174,832
30630,1172,844
30635,1184,839
30640,1183,857
30645,1182,865
30650,1193,866
30655,1197,871
30660,1181,871
30665,1186,876
30670,1185,880
30675,1186,889
30680,1191,893
30685,1191,896
30690,1179,894
30695,1176,897
30700,1180,903
30705,1171,903
30710,1178,910
30715,1167,909
30720,1169,916
30725,1167,918
30730,1161,910
30735,1164,920
30740,1168,917
30745,1164,920
30750,1163,925
30755,1159,925
30760,1145,917
30765,1147,919
30770,1152,919
30775,1146,926
30780,1149,919
30785,1138,918
30790,1126,922
30795,1133,922
30800,1128,923
30805,1123,919
30810,1124,915
30815,1116,910
30820,1114,916
30825,1117,911
30830,1108,906
30835,1110,904
30840,1111,905
30845,1106,904
30850,1113,901
30855,1106,903
30860,1105,895
30865,1101,896
30870,1096,893
30875,1097,900
30880,1104,891
30885,1094,891
30890,1099,886
30895,1088,883
30900,1079,882
30905,1089,881
30910,1091,879
30915,1078,885
30920,1072,881
30925,1081,877
30930,1070,873
30935,1074,870
30940,1066,869
30945,1069,866
30950,1067,866
30955,1059,869
30960,1062,864
30965,1051,867
30970,1056,864
30975,1048,859
30980,1040,862
30985,1038,856
30990,1044,857
30995,1028,862
31000,1027,860
31005,1021,859
31010,1020,852
31015,1015,849
31020,1008,852
31025,998,848
31030,995,849
31035,994,842
31040,979,843
31045,978,845
31050,970,843
31055,961,838
31060,962,842
31065,951,835
31070,935,835
31075,938,831
31080,927,828
31085,909,824
31090,914,827
31095,907,826
31100,886,820
31105,896,815
31110,880,808
31115,865,811
31120,867,807
31125,867,801
31130,843,799
31135,843,794
31140,840,792
31145,825,789
31150,812,778
31155,814,779
31160,803,776
31165,811,766
31170,786,761
31175,791,760
31180,785,749
31185,779,746
31190,766,745
31195,773,736
31200,772,729
31205,755,731
31210,762,726
31215,755,720
31220,745,710
31225,757,705
31230,748,701
31235,742,699
31240,758,688
31245,746,687
31250,746,681
31255,744,688
31260,752,672
31265,751,677
31270,747,672
31275,759,664
31280,763,663
31285,768,655
31290,773,654
31295,774,651
31300,783,645
31305,786,644
31310,791,645
31315,797,635
31320,804,640
31325,809,637
31330,811,640
31335,828,635
31340,838,643
31345,842,633
31350,851,636
31355,868,638
31360,871,641
31365,876,640
31370,894,647
31375,903,640
31380,907,645
31385,914,644
31390,921,650
31395,930,654
31400,949,660
31405,969,657
31410,977,664
31415,978,667
31420,994,671
31425,1003,673
31430,1018,683
31435,1020,686
31440,1037,692
31445,1036,694
31450,1055,703
31455,1063,706
31460,1075,715
31465,1083,716
31470,1081,724
31475,1098,733
31480,1105,740
31485,1123,745
31490,1114,760
31495,1124,757
31500,1129,767
31505,1141,773
31510,1145,783
31515,1151,790
31520,1157,790
31525,1154,799
31530,1170,807
31535,1175,815
31540,1182,817
31545,1177,830
31550,1179,835
31555,1170,835
31560,1189,851
31565,1191,852
31570,1188,857
31575,1183,858
31580,1187,867
31585,1191,871
31590,1193,877
31595,1191,881
31600,1195,886
31605,1188,889
31610,1185,894
31615,1186,895
31620,1188,903
31625,1189,906
31630,1171,906
31635,1170,915
31640,1183,914
31645,1172,910
31650,1175,913
31655,1176,921
31660,1166,919
31665,1166,927
31670,1159,926
31675,1160,918
31680,1144,919
31685,1154,922
31690,1147,917
31695,1140,919
31700,1144,920
31705,1135,921
31710,1132,920
31715,1135,915
31720,1131,918
31725,1125,919
31730,1124,915
31735,1119,912
31740,1119,909
31745,1116,916
31750,1120,907
31755,1117,910
31760,1109,907
31765,1105,908
31770,1114,905
31775,1108,900
31780,1103,900
31785,1085,897
31790,1102,895
31795,1096,887
31800,1095,893
31805,1099,892
31810,1088,891
31815,1085,890
31820,1091,884
31825,1080,882
31830,1085,880
31835,1087,877
31840,1083,878
31845,1077,875
31850,1078,879
31855,1080,875
31860,1069,871
31865,1075,863
31870,1073,867
31875,1064,866
31880,1062,870
31885,1054,868
31890,1058,867
31895,1051,866
31900,1055,864
31905,1037,856
31910,1034,864
31915,1046,856
31920,1037,855
31925,1029,858
31930,1019,858
31935,1018,852
31940,1012,852
31945,1009,856
31950,1000,844
31955,1000,844
31960,992,856
31965,985,848
31970,982,841
31975,963,844
31980,961,840
31985,944,837
31990,956,837
31995,936,836
32000,939,831
32005,929,832
32009,917,825
32015,915,822
32020,905,821
32025,900,820
32030,882,810
32034,882,814
32040,875,809
32045,869,800
32049,854,800
32055,846,795
32060,843,790
32064,829,785
32070,832,792
32075,819,779
32080,821,775
32085,806,774
32090,793,766
32095,792,763
32100,796,753
32104,789,753
32110,776,751
32115,772,744
32119,754,736
32125,768,731
32130,767,732
32134,753,726
32140,756,717
32145,755,712
32150,755,709
32155,741,706
32159,748,697
32165,748,696
32170,744,690
32174,745,689
32180,746,678
32185,749,673
32189,764,674
32195,761,666
32200,749,663
32205,765,662
32210,766,657
32215,766,656
32220,773,645
32225,783,648
32229,788,644
32235,786,646
32240,796,643
32244,805,636
32250,811,637
32255,814,634
32259,828,640
32265,840,634
32270,847,634
32275,851,638
32280,863,639
32284,876,640
32290,883,640
32295,895,639
32299,895,644
32305,917,645
32310,927,645
32314,939,649
32320,946,647
32325,945,657
32330,959,659
32335,973,664
32340,992,666
32345,982,669
32350,996,677
32354,1019,682
32360,1029,689
32365,1048,693
32369,1039,699
32375,1058,701
32380,1067,708
32384,1078,715
32390,1081,718
32395,1094,729
32400,1093,735
32405,1110,739
32409,1108,747
32415,1136,754
32420,1135,764
32424,1133,769
32430,1145,772
32435,1148,780
32439,1150,788
32445,1149,797
32450,1158,802
32455,1163,802
32460,1163,814
32465,1170,820
32470,1167,828
32475,1192,830
32479,1184,842
32485,1184,847
32490,1184,852
32494,1186,858
32500,1196,863
32505,1189,864
32509,1178,875
32515,1184,873
32520,1190,882
32525,1181,885
32530,1185,889
32534,1187,895
32540,1188,901
32545,1179,900
32549,1189,900
32555,1191,905
32560,1182,914
32564,1169,909
32570,1162,914
32575,1170,914
32580,1162,920
32585,1179,914
32590,1163,915
32595,1157,921
32600,1149,919
32604,1149,917
32610,1146,919
32615,1144,924
32619,1145,920
32625,1137,925
32630,1133,917
32634,1139,925
32640,1132,920
32645,1134,917
32650,1127,920
32655,1129,918
32659,1123,918
32665,1117,908
32670,1120,911
32674,1108,914
32680,1111,913
32685,1114,909
32689,1105,908
32695,1107,899
32700,1098,904
32705,1095,903
32710,1101,898
32715,1100,894
32720,1098,889
32725,1101,891
32729,1102,894
32735,1087,890
32740,1089,893
32744,1091,888
32750,1081,887
32755,1080,883
32759,1076,874
32765,1075,880
32770,1080,876
32775,1074,871
32780,1073,872
32785,1076,872
32790,1074,868
32795,1060,863
32800,1059,863
32805,1058,871
32810,1063,868
32815,1058,859
32820,1053,861
32825,1039,858
32830,1047,862
32835,1043,858
32840,1036,858
32845,1038,860
32850,1029,855
32855,1029,856
32860,1017,856
32865,1011,852
32870,1013,854
32875,995,845
32880,992,850
32885,979,849
32890,980,844
32895,979,846
32900,977,842
32905,964,844
32910,963,837
32915,943,832
32920,944,829
32925,929,831
32930,925,834
32935,918,825
32940,910,828
32945,901,825
32950,904,814
32955,897,814
32960,881,806
32965,872,806
32970,860,803
32975,857,800
32980,859,801
32985,848,792
32990,832,786
32995,828,785
33000,819,783
33005,817,775
33010,810,772
33015,800,762
33020,791,755
33025,789,755
33030,781,752
33035,784,748
33040,774,747
33045,763,735
33050,765,731
33055,758,730
33060,753,722
33065,755,717
33070,750,717
33075,749,706
33080,743,704
33085,754,698
33090,748,691
33095,745,681
33100,754,681
33105,746,679
33110,752,676
33115,752,664
33120,756,667
33125,761,660
33130,756,658
33135,763,652
33140,769,649
33145,779,655
33150,776,646
33155,785,643
33160,792,644
33165,810,650
33170,804,641
33175,811,642
33180,815,643
33185,828,634
33190,830,635
33195,852,638
33200,855,636
33205,867,636
33210,872,641
33215,883,639
33220,888,638
33225,903,644
33230,914,642
33235,912,650
33240,934,652
33245,947,656
33250,952,660
33255,962,654
33260,966,665
33265,983,668
33270,997,676
33275,1015,677
33280,1007,675
33285,1029,687
33290,1042,692
33295,1049,694
33300,1057,706
33305,1064,704
33310,1068,720
33315,1081,718
33320,1077,735
33325,1096,732
33330,1111,740
33335,1113,745
33340,1122,756
33345,1132,766
33350,1125,769
33355,1140,776
33360,1153,779
33365,1152,792
33370,1151,801
33375,1160,805
33380,1168,806
33385,1165,815
33390,1160,823
33395,1182,824
33400,1176,838
33405,1180,842
33410,1192,845
33415,1188,850
33420,1191,861
33425,1188,867
33430,1191,868
33435,1187,874
33440,1189,877
33445,1199,879
33450,1190,891
33455,1188,887
33460,1179,897
33465,1190,896
33470,1184,900
33475,1183,901
33480,1177,906
33485,1176,912
33490,1179,910
33495,1168,914
33500,1167,917
33505,1178,920
33510,1166,919
33515,1175,922
33520,1157,923
33525,1148,921
33530,1148,919
33535,1149,924
33540,1151,923
33545,1141,920
33550,1139,921
33555,1136,916
33560,1131,925
33565,1125,919
33570,1131,929
33575,1128,919
33580,1123,916
33585,1115,915
33590,1128,914
33595,1122,912
33600,1120,909
33605,1120,912
33610,1114,909
33615,1112,911
33620,1099,908
33625,1106,901
33630,1105,897
33635,1098,896
33640,1103,890
33645,1102,891
33650,1094,891
33655,1094,889
33660,1088,891
33665,1093,889
33670,1086,885
33675,1084,886
33680,1087,885
33685,1082,877
33690,1087,882
33695,1076,876
33700,1079,876
33705,1069,870
33710,1072,870
33715,1076,876
33720,1071,871
33725,1060,863
33730,1061,865
33735,1054,868
33740,1059,863
33745,1049,864
33750,1043,863
33755,1044,857
33760,1036,863
33765,1038,853
33770,1031,855
33775,1024,862
33780,1017,853
33785,1015,858
33790,1017,848
33795,997,857
33800,999,848
33805,994,848
33810,996,850
33815,984,845
33820,972,845
33825,959,838
33830,960,842
33835,954,836
33840,960,831
33845,938,828
33850,930,831
33855,914,828
33860,908,820
33865,913,826
33870,906,819
33875,896,817
33880,876,809
33885,873,809
33890,877,803
33895,862,801
33900,863,801
33905,844,797
33910,838,796
33915,833,783
33920,826,780
33925,822,779
33930,817,768
33935,818,767
33940,801,767
33945,793,761
33950,791,759
33955,779,758
33960,787,746
33965,772,739
33970,770,736
33975,770,733
33980,753,724
33985,760,720
33990,764,718
33995,750,719
