timestamp_ms,ir_finger,ir_toe
0,1041,784
5,1057,779
10,1065,774
15,1074,774
20,1092,768
25,1094,770
30,1114,768
35,1122,765
40,1128,757
45,1141,765
50,1134,758
55,1146,756
60,1153,760
65,1160,753
70,1164,749
75,1174,753
80,1185,756
85,1176,748
90,1185,754
95,1190,749
100,1183,749
105,1188,750
110,1183,752
115,1186,750
120,1182,749
125,1191,755
130,1184,748
135,1192,753
140,1173,746
145,1175,745
150,1179,750
155,1173,750
160,1169,749
165,1164,758
170,1159,757
175,1158,761
180,1155,764
185,1158,755
190,1143,766
195,1149,761
200,1146,763
205,1138,772
210,1134,769
215,1132,774
220,1132,774
225,1133,779
230,1127,780
235,1121,781
240,1120,787
245,1116,786
250,1115,794
255,1105,793
260,1107,801
265,1103,800
270,1100,805
275,1100,809
280,1095,810
285,1092,814
290,1097,810
295,1085,816
300,1094,817
305,1081,827
310,1083,825
315,1087,825
320,1078,825
325,1079,824
330,1067,834
335,1060,827
340,1055,833
345,1062,833
350,1055,832
355,1059,834
360,1044,837
365,1048,837
370,1037,838
375,1042,838
380,1027,839
385,1024,840
390,1024,835
395,1008,841
400,1002,839
405,993,839
410,998,841
415,990,842
420,969,841
425,962,839
430,963,838
435,946,834
440,932,836
445,933,829
450,924,834
455,916,833
460,900,839
465,891,835
470,887,836
475,871,833
480,861,829
485,855,831
490,847,826
495,831,827
500,825,824
505,825,826
510,811,826
515,806,827
520,800,825
525,791,824
530,781,823
535,769,827
540,770,826
545,769,818
550,755,823
555,747,817
560,756,823
565,747,817
570,754,818
575,747,815
580,746,818
585,750,812
590,752,816
595,760,817
600,759,812
605,761,813
610,771,811
615,767,816
620,778,810
625,789,814
630,794,807
635,794,812
640,804,807
645,822,811
650,827,805
655,834,809
660,843,812
665,862,807
670,874,802
675,885,809
680,905,805
685,909,801
690,914,801
695,930,796
700,952,791
705,974,793
710,978,789
715,989,789
720,998,784
725,1011,784
730,1034,782
735,1042,781
740,1055,778
745,1060,778
750,1074,776
755,1086,771
760,1092,774
765,1106,772
770,1117,770
775,1124,767
780,1138,764
785,1140,759
790,1142,762
795,1156,758
800,1163,757
805,1161,753
810,1165,752
815,1172,755
820,1181,751
825,1178,750
830,1183,748
835,1183,748
840,1181,745
845,1188,746
850,1192,747
855,1188,750
860,1182,751
865,1179,747
870,1192,751
875,1188,747
880,1174,745
885,1183,751
890,1181,748
895,1177,748
900,1165,753
905,1164,751
910,1174,756
915,1157,756
920,1142,757
925,1159,761
930,1159,768
935,1151,767
940,1141,772
945,1131,766
950,1136,775
955,1126,776
960,1135,778
965,1132,783
970,1122,786
975,1127,786
980,1124,790
985,1111,794
990,1107,793
995,1115,798
1000,1115,799
1004,1105,804
1010,1101,802
1014,1098,812
1020,1099,810
1025,1099,816
1030,1091,811
1035,1091,814
1040,1087,816
1045,1087,823
1050,1087,821
1055,1085,829
1060,1084,825
1065,1076,829
1070,1068,827
1075,1062,835
1080,1053,832
1085,1063,835
1090,1052,838
1095,1046,833
1100,1045,834
1105,1037,832
1110,1031,841
1115,1030,838
1120,1030,842
1125,1024,835
1130,1010,837
1135,1008,836
1140,993,837
1145,984,839
1150,980,839
1155,967,841
1160,965,838
1165,945,838
1170,957,840
1175,940,838
1180,934,836
1185,920,835
1190,925,833
1195,890,833
1200,888,831
1205,881,831
1210,871,831
1215,865,829
1220,855,828
1225,855,824
1230,839,829
1235,822,827
1240,813,827
1245,808,824
1250,789,826
1255,795,822
1260,784,826
1265,775,829
1270,770,823
1275,766,822
1280,763,821
1285,760,822
1290,756,817
1295,753,823
1300,746,822
1305,751,816
1310,752,818
1315,751,820
1320,748,821
1325,741,818
1330,749,814
1335,754,817
1340,767,816
1345,769,818
1350,770,808
1355,768,815
1360,784,811
1365,784,812
1370,795,811
1375,796,806
1380,804,811
1385,824,809
1390,834,807
1395,844,801
1400,858,804
1405,866,805
1410,886,803
1415,887,797
1420,908,806
1425,921,793
1430,928,796
1435,946,793
1440,945,791
1445,978,794
1450,983,788
1455,1003,788
1460,1016,788
1465,1028,787
1470,1035,785
1475,1049,777
1480,1061,783
1485,1071,778
1490,1083,770
1495,1098,769
1500,1103,766
1505,1117,762
1510,1122,763
1515,1136,763
1520,1134,761
1525,1147,759
1530,1147,759
1535,1149,760
1540,1163,757
1545,1172,756
1550,1175,756
1555,1178,745
1560,1185,745
1565,1181,752
1570,1187,747
1575,1193,748
1580,1185,748
1585,1182,748
1590,1182,748
1595,1187,747
1600,1183,748
1605,1173,745
1610,1186,745
1615,1181,748
1620,1179,746
1625,1179,748
1630,1178,750
1635,1169,753
1640,1173,754
1645,1172,755
1650,1157,761
1655,1160,761
1660,1163,754
1665,1148,765
1670,1147,768
1675,1141,772
1680,1151,772
1685,1136,773
1690,1139,776
1695,1132,780
1700,1131,776
1705,1120,782
1710,1123,788
1715,1117,788
1720,1108,794
1725,1111,794
1730,1105,792
1735,1109,806
1740,1111,803
1745,1108,805
1750,1093,811
1755,1097,812
1760,1099,810
1765,1085,811
1770,1084,819
1775,1079,812
1780,1082,825
1785,1079,818
1790,1074,833
1795,1075,831
1800,1074,828
1805,1074,828
1810,1080,830
1815,1061,837
1820,1065,830
1825,1065,836
1830,1056,837
1835,1053,836
1840,1049,844
1845,1036,837
1850,1035,841
1855,1023,841
1860,1023,840
1865,1011,840
1870,1012,842
1875,998,842
1880,994,841
1885,994,842
1890,981,833
1895,976,842
1900,970,831
1905,952,837
1910,949,839
1915,944,840
1920,927,833
1925,919,832
1930,905,831
1935,895,833
1940,893,831
1945,872,832
1950,855,830
1955,857,828
1960,846,834
1965,840,826
1970,826,825
1975,819,822
1980,815,825
1985,807,829
1990,792,827
1995,800,826
2000,787,820
2005,775,821
2009,771,822
2015,764,815
2020,760,826
2025,763,828
2029,757,819
2035,753,825
2040,748,815
2045,745,819
2050,746,820
2055,742,816
2060,753,818
2065,752,818
2070,759,816
2075,763,814
2080,765,812
2085,765,811
2090,768,815
2095,777,808
2100,780,816
2105,791,812
2110,801,817
2115,813,810
2120,825,807
2125,833,804
2130,843,808
2135,853,806
2140,865,806
2145,880,803
2150,893,802
2155,899,808
2160,917,802
2165,923,797
2170,934,794
2175,961,791
2180,966,793
2185,977,790
2190,999,793
2195,1003,790
2200,1021,784
2205,1037,786
2210,1041,777
2215,1055,778
2220,1072,779
2225,1079,770
2230,1085,771
2235,1095,767
2240,1105,770
2245,1118,760
2250,1120,764
2255,1142,764
2260,1151,763
2265,1153,755
2270,1153,758
2275,1163,755
2280,1177,756
2285,1179,756
2290,1174,752
2295,1177,750
2300,1176,754
2305,1196,751
2310,1187,751
2315,1184,749
2320,1187,747
2325,1186,747
2330,1189,746
2335,1188,751
2340,1190,752
2345,1182,749
2350,1187,750
2355,1167,748
2360,1178,749
2365,1184,749
2370,1176,756
2375,1172,751
2380,1158,757
2385,1171,752
2390,1165,761
2395,1158,760
2400,1145,761
2405,1142,770
2410,1140,763
2415,1139,767
2420,1130,780
2425,1141,777
2430,1132,781
2435,1119,783
2440,1122,782
2445,1120,789
2450,1127,787
2455,1111,791
2460,1098,791
2465,1104,799
2470,1102,799
2475,1106,807
2480,1098,804
2485,1094,803
2490,1092,804
2495,1088,807
2500,1092,814
2505,1096,812
2510,1090,820
2515,1091,818
2520,1086,822
2525,1082,826
2530,1075,823
2535,1085,825
2540,1076,824
2545,1070,831
2550,1067,829
2555,1058,837
2560,1069,835
2565,1055,837
2570,1050,839
2575,1055,837
2580,1037,838
2585,1031,841
2590,1023,839
2595,1025,839
2600,1015,841
2605,1012,838
2610,1010,841
2615,996,840
2620,993,838
2625,974,833
2630,972,835
2635,970,838
2640,956,838
2645,947,837
2650,936,834
2655,928,835
2660,920,833
2665,904,838
2670,891,835
2675,889,832
2680,882,835
2685,874,829
2690,862,834
2695,842,829
2700,848,822
2705,836,824
2710,826,828
2715,810,827
2720,805,827
2725,787,829
2730,786,820
2735,786,824
2740,780,818
2745,777,819
2750,766,818
2755,756,824
2760,753,820
2765,748,819
2770,752,826
2775,759,820
2780,760,820
2785,750,820
2790,743,825
2795,747,816
2800,745,817
2805,742,813
2810,745,818
2815,760,816
2820,769,818
2825,768,815
2830,778,816
2835,785,811
2840,789,819
2845,792,812
2850,809,808
2855,815,807
2860,829,806
2865,846,810
2870,855,807
2875,860,814
2880,871,799
2885,883,805
2890,906,798
2895,918,801
2900,932,795
2905,938,796
2910,958,793
2915,967,788
2920,982,790
2925,993,789
2930,994,784
2935,1028,788
2940,1032,784
2945,1041,778
2950,1050,779
2955,1064,777
2960,1065,772
2965,1086,776
2970,1106,774
2975,1109,770
2980,1127,768
2985,1123,762
2990,1128,761
2995,1147,763
3000,1151,758
3005,1152,753
3010,1160,753
3015,1168,754
3020,1179,754
3025,1176,757
3030,1179,749
3035,1172,752
3040,1184,755
3045,1193,749
3050,1188,746
3055,1181,745
3060,1193,749
3065,1187,747
3070,1197,747
3075,1187,748
3080,1185,748
3085,1187,749
3090,1174,748
3095,1186,748
3100,1171,750
3105,1166,755
3110,1160,751
3115,1166,757
3120,1162,760
3125,1160,762
3130,1153,764
3135,1160,760
3140,1154,770
3145,1145,768
3150,1137,771
3155,1132,774
3160,1135,774
3165,1133,779
3170,1132,776
3175,1125,785
3180,1120,784
3185,1116,788
3190,1111,790
3195,1115,783
3200,1108,793
3205,1103,798
3210,1106,801
3215,1097,808
3220,1098,810
3225,1099,807
3230,1094,807
3235,1088,812
3240,1091,818
3245,1089,820
3250,1092,817
3255,1089,825
3260,1081,826
3265,1084,825
3270,1084,825
3275,1074,827
3280,1073,827
3285,1065,829
3290,1060,834
3295,1057,840
3300,1063,837
3305,1045,833
3310,1053,834
3315,1038,838
3320,1050,837
3325,1031,839
3330,1025,840
3335,1017,838
3340,1012,837
3345,1005,837
3350,997,837
3355,993,842
3360,985,840
3365,972,836
3370,969,834
3375,952,838
3380,941,837
3385,934,832
3390,919,830
3395,915,833
3400,909,833
3405,896,834
3410,896,831
3415,890,830
3420,877,833
3425,866,833
3430,853,830
3435,851,826
3440,839,828
3445,833,828
3450,818,826
3455,809,827
3460,796,827
3465,787,819
3470,789,823
3475,779,825
3480,780,825
3485,763,819
3490,756,821
3495,757,818
3500,749,820
3505,759,820
3510,745,817
3515,753,817
3520,746,822
3525,755,820
3530,754,816
3535,744,816
3540,756,816
3545,756,811
3550,748,813
3555,764,810
3560,773,823
3565,778,808
3570,787,814
3575,789,812
3580,797,809
3585,811,812
3590,819,806
3595,829,809
3600,832,808
3605,848,804
3610,860,809
3615,873,808
3620,878,798
3625,895,799
3630,919,797
3635,912,800
3640,934,798
3645,949,795
3650,963,794
3655,973,796
3660,996,789
3665,1004,789
3670,1014,777
3675,1025,785
3680,1038,784
3685,1056,779
3690,1057,774
3695,1076,774
3700,1076,774
3705,1096,772
3710,1107,771
3715,1112,768
3720,1121,765
3725,1131,761
3730,1140,766
3735,1141,761
3740,1156,758
3745,1161,755
3750,1165,753
3755,1161,754
3760,1167,754
3765,1175,749
3770,1175,750
3775,1187,753
3780,1187,752
3785,1178,751
3790,1184,747
3795,1186,751
3800,1183,748
3805,1190,744
3810,1187,748
3815,1178,744
3820,1194,743
3825,1188,748
3830,1186,748
3835,1171,747
3840,1174,751
3845,1181,752
3850,1165,751
3855,1173,758
3860,1159,758
3865,1159,756
3870,1163,763
3875,1148,768
3880,1148,768
3885,1140,767
3890,1131,768
3895,1137,776
3900,1137,779
3905,1134,775
3910,1125,778
3915,1119,786
3920,1119,788
3925,1120,790
3930,1117,789
3935,1114,796
3940,1111,798
3945,1103,800
3950,1102,802
3955,1096,805
3960,1102,805
3965,1092,811
3970,1097,813
3975,1088,812
3980,1095,816
3985,1088,820
3990,1079,821
3995,1087,816
4000,1074,827
4005,1084,831
4010,1083,830
4014,1079,832
4019,1073,831
4025,1065,836
4030,1064,827
4035,1056,835
4040,1049,837
4045,1051,837
4050,1042,841
4054,1027,838
4059,1022,837
4065,1030,840
4070,1025,839
4075,1003,841
4080,1001,839
4085,1004,835
4090,994,840
4094,984,840
4100,974,838
4105,966,839
4110,958,841
4115,957,833
4120,931,835
4125,934,834
4130,920,833
4135,914,835
4140,910,832
4145,887,833
4150,877,835
4155,878,829
4160,874,829
4165,856,830
4170,843,831
4175,840,832
4180,825,823
4185,817,824
4190,811,824
4195,816,826
4200,796,826
4205,787,825
4210,778,827
4215,776,820
4220,773,821
4225,765,822
4230,756,821
4235,761,821
4240,748,815
4245,745,819
4250,749,817
4255,746,823
4260,747,819
4265,753,818
4270,750,818
4275,763,818
4280,758,819
4285,751,819
4290,774,818
4295,773,813
4300,778,816
4305,782,809
4310,793,810
4315,801,815
4320,803,812
4325,806,804
4330,817,811
4335,835,806
4340,848,804
4345,851,805
4350,874,801
4355,875,804
4360,893,806
4365,902,796
4370,916,796
4375,936,799
4380,950,791
4385,948,789
4390,974,792
4395,984,792
4400,991,784
4405,1006,784
4410,1014,787
4415,1036,780
4420,1048,780
4425,1054,776
4430,1068,773
4435,1082,772
4440,1097,771
4445,1103,771
4450,1117,767
4455,1130,769
4460,1131,764
4465,1140,763
4470,1137,759
4475,1142,757
4480,1150,759
4485,1161,757
4490,1171,751
4495,1167,751
4500,1172,751
4505,1182,748
4510,1187,747
4515,1179,752
4520,1183,747
4525,1186,749
4530,1189,748
4535,1188,747
4540,1186,748
4545,1185,743
4550,1179,752
4555,1184,753
4560,1181,747
4565,1170,750
4570,1181,751
4575,1181,750
4580,1177,752
4585,1170,756
4590,1165,755
4595,1164,757
4600,1158,760
4605,1152,767
4610,1155,764
4615,1155,766
4620,1144,770
4625,1144,763
4630,1142,771
4635,1129,774
4640,1135,782
4645,1128,778
4650,1128,784
4655,1120,786
4660,1117,791
4665,1115,792
4670,1110,793
4675,1114,797
4680,1105,802
4685,1100,802
4690,1103,801
4695,1097,807
4700,1097,808
4705,1092,809
4710,1090,816
4715,1089,819
4720,1082,825
4725,1083,819
4730,1091,824
4735,1080,829
4740,1071,825
4745,1084,835
4750,1074,832
4755,1068,829
4760,1063,833
4765,1061,835
4770,1055,835
4775,1060,833
4780,1043,837
4785,1043,840
4790,1045,837
4795,1043,833
4800,1024,842
4805,1015,845
4810,1020,835
4815,1019,835
4820,1005,837
4825,1000,841
4830,997,832
4835,987,842
4840,978,835
4845,966,839
4850,954,840
4855,941,831
4860,931,836
4865,924,831
4870,918,831
4875,904,837
4880,902,832
4885,888,832
4890,890,837
4895,860,831
4900,860,823
4905,845,832
4910,842,826
4915,835,828
4920,822,832
4925,809,826
4930,803,827
4935,789,821
4940,793,830
4945,788,823
4950,768,822
4955,774,820
4960,770,819
4965,759,820
4970,764,819
4975,756,816
4980,745,817
4985,754,821
4990,749,814
4995,753,816
5000,746,819
5005,741,818
5010,746,819
5015,749,819
5020,756,811
5025,766,816
5030,768,817
5035,772,812
5040,774,820
5045,792,813
5050,793,811
5055,803,805
5060,813,808
5065,826,806
5070,836,808
5075,841,803
5080,851,806
5085,871,807
5090,875,805
5095,892,797
5100,900,801
5105,916,797
5110,932,796
5115,942,797
5120,955,793
5125,976,794
5130,978,795
5135,993,793
5140,1001,788
5145,1023,787
5150,1036,782
5155,1051,779
5160,1052,781
5165,1068,777
5170,1075,772
5175,1084,768
5180,1109,766
5185,1108,773
5190,1116,764
5195,1125,763
5200,1132,760
5205,1143,760
5210,1149,760
5215,1164,762
5220,1164,757
5225,1177,750
5230,1167,752
5235,1179,751
5240,1175,752
5245,1176,747
5250,1187,748
5255,1189,748
5260,1183,752
5265,1190,748
5270,1191,745
5275,1189,746
5280,1187,750
5285,1185,748
5290,1185,747
5295,1178,746
5300,1182,746
5305,1175,752
5310,1177,754
5315,1168,753
5320,1175,755
5325,1168,762
5330,1163,760
5335,1153,763
5340,1159,764
5345,1154,764
5350,1151,766
5355,1146,768
5360,1147,770
5365,1130,773
5370,1130,779
5375,1132,780
5380,1117,782
5385,1130,776
5390,1128,783
5395,1109,789
5400,1113,790
5405,1111,791
5410,1110,790
5415,1105,799
5420,1103,808
5425,1100,808
5430,1098,808
5435,1095,807
5440,1098,814
5445,1094,810
5450,1083,817
5455,1087,821
5460,1086,822
5465,1088,825
5470,1081,822
5475,1080,823
5480,1073,828
5485,1073,828
5490,1062,822
5495,1067,829
5500,1060,832
5505,1063,838
5510,1060,832
5515,1055,829
5520,1042,837
5525,1036,837
5530,1033,836
5535,1025,839
5540,1022,836
5545,1015,837
5550,1011,840
5555,1010,840
5560,988,838
5565,990,840
5570,990,835
5575,972,845
5580,969,841
5585,943,837
5590,949,833
5595,934,833
5600,925,835
5605,924,834
5610,900,837
5615,903,833
5620,892,833
5625,882,830
5630,863,834
5635,865,828
5640,851,830
5645,846,826
5650,829,827
5655,822,828
5660,800,825
5665,805,825
5670,802,823
5675,788,826
5680,789,820
5685,773,826
5690,776,820
5695,754,821
5700,760,825
5705,753,823
5710,763,821
5715,743,823
5720,741,819
5725,742,824
5730,750,819
5735,744,817
5740,756,816
5745,751,812
5750,745,818
5755,752,816
5760,763,812
5765,764,815
5770,773,811
5775,776,810
5780,790,813
5785,787,811
5790,801,806
5795,811,805
5800,813,812
5805,832,808
5810,836,806
5815,845,808
5820,862,802
5825,873,804
5830,896,801
5835,900,802
5840,909,800
5845,926,800
5850,934,793
5855,945,788
5860,974,790
5865,968,794
5870,983,792
5875,998,782
5880,1024,783
5885,1033,784
5890,1050,782
5895,1058,784
5900,1064,777
5905,1079,775
5910,1084,773
5915,1100,766
5920,1116,769
5925,1113,760
5930,1128,772
5935,1135,766
5940,1135,755
5945,1152,757
5950,1150,761
5955,1163,756
5960,1159,753
5965,1160,755
5970,1173,751
5975,1177,754
5980,1181,753
5985,1194,749
5990,1189,747
5995,1184,748
6000,1187,746
6005,1190,743
6010,1184,747
6015,1183,743
6020,1189,750
6025,1175,751
6030,1193,748
6035,1182,752
6040,1173,757
6045,1177,751
6050,1169,756
6055,1173,755
6060,1163,758
6065,1164,764
6070,1158,761
6075,1152,756
6080,1156,766
6085,1148,764
6090,1140,761
6095,1142,763
6100,1146,770
6105,1135,776
6110,1132,777
6115,1125,782
6120,1129,780
6125,1119,782
6130,1119,783
6135,1113,791
6140,1117,797
6145,1105,796
6150,1089,802
6155,1105,803
6160,1111,803
6165,1105,809
6170,1102,810
6175,1094,807
6180,1093,814
6185,1091,811
6190,1084,813
6195,1088,821
6200,1083,820
6205,1080,825
6210,1078,826
6215,1072,822
6220,1075,831
6225,1061,830
6230,1074,832
6235,1067,831
6240,1062,831
6245,1049,838
6250,1048,833
6255,1057,831
6260,1046,828
6265,1033,837
6270,1037,840
6275,1023,841
6280,1013,835
6285,1021,842
6290,1010,830
6295,999,842
6300,1000,840
6305,982,839
6310,974,840
6315,966,837
6320,970,837
6325,944,842
6330,938,834
6335,926,827
6340,921,835
6345,908,830
6350,900,832
6355,888,838
6360,888,833
6365,867,831
6370,864,832
6375,846,828
6380,853,823
6385,837,816
6390,827,822
6395,824,828
6400,813,824
6405,809,826
6410,787,826
6415,794,831
6420,788,828
6425,768,821
6430,771,819
6435,753,828
6440,758,825
6445,749,822
6450,753,821
6455,759,818
6460,747,819
6465,744,817
6470,742,814
6475,755,819
6480,747,816
6485,754,819
6490,759,819
6495,767,814
6500,761,814
6505,768,812
6510,775,813
6515,782,809
6520,791,813
6525,791,811
6530,806,801
6535,818,816
6540,825,805
6545,840,806
6550,846,806
6555,863,805
6560,868,805
6565,887,798
6570,888,803
6575,915,797
6580,918,793
6585,938,800
6590,942,793
6595,953,794
6600,975,794
6605,992,795
6610,1002,787
6615,1006,786
6620,1026,781
6625,1034,786
6630,1047,777
6635,1056,780
6640,1072,777
6645,1077,772
6650,1090,771
6655,1099,767
6660,1109,767
6665,1122,766
6670,1119,764
6675,1139,761
6680,1144,764
6685,1155,755
6690,1165,758
6695,1156,758
6700,1171,759
6705,1176,755
6710,1188,756
6715,1184,751
6720,1186,749
6725,1183,750
6730,1185,752
6735,1189,740
6740,1189,751
6745,1194,745
6750,1191,749
6755,1185,750
6760,1188,748
6765,1186,749
6770,1185,748
6775,1182,752
6780,1177,752
6785,1178,751
6790,1172,755
6795,1170,759
6800,1169,760
6805,1158,763
6810,1154,759
6815,1162,763
6820,1150,764
6825,1147,770
6830,1138,769
6835,1137,764
6840,1148,770
6845,1134,776
6850,1127,779
6855,1125,783
6860,1134,783
6865,1119,784
6870,1121,790
6875,1108,794
6880,1115,792
6885,1115,800
6890,1100,798
6895,1102,799
6900,1098,803
6905,1099,803
6910,1097,809
6915,1099,818
6920,1091,810
6925,1097,818
6930,1091,818
6935,1086,820
6940,1085,822
6945,1093,826
6950,1075,823
6955,1072,825
6960,1075,829
6965,1063,829
6970,1062,832
6975,1049,839
6980,1064,836
6985,1051,836
6990,1051,838
6995,1048,838
7000,1034,837
7005,1032,838
7010,1025,838
7015,1022,831
7020,1004,840
7025,1010,838
7030,995,837
7035,991,838
7040,993,837
7045,979,840
7050,961,833
7055,954,835
7060,944,841
7065,938,840
7070,935,838
7075,924,835
7080,920,837
7085,897,832
7090,894,831
7095,884,831
7100,876,826
7105,862,827
7110,864,825
7115,854,829
7120,833,825
7125,830,826
7130,817,822
7135,813,825
7140,800,828
7145,795,825
7150,781,826
7155,774,821
7160,775,823
7165,763,823
7170,759,821
7175,763,816
7180,761,825
7185,750,819
7190,750,823
7195,750,817
7200,745,818
7205,745,817
7210,740,820
7215,755,816
7220,748,817
7225,752,817
7230,753,814
7235,756,814
7240,770,811
7245,779,816
7250,770,814
7255,786,812
7260,793,813
7265,802,802
7270,804,810
7275,827,812
7280,839,807
7285,843,809
7290,851,806
7295,868,802
7300,876,805
7305,894,801
7310,910,794
7315,921,796
7320,931,794
7325,944,794
7330,959,793
7335,973,787
7340,986,788
7345,996,791
7350,1010,786
7355,1020,785
7360,1042,779
7365,1050,779
7370,1057,772
7375,1072,778
7380,1073,772
7385,1088,775
7390,1105,768
7395,1113,772
7400,1125,771
7405,1127,762
7410,1138,766
7415,1144,760
7420,1147,759
7425,1156,756
7430,1161,762
7435,1166,761
7440,1174,756
7445,1160,756
7450,1181,755
7455,1185,750
7460,1190,748
7465,1197,750
7470,1188,751
7475,1180,743
7480,1189,748
7485,1180,749
7490,1189,749
7495,1189,749
7500,1188,745
7505,1180,752
7510,1173,754
7515,1176,751
7520,1173,754
7525,1174,749
7530,1164,753
7535,1165,761
7540,1153,755
7545,1163,759
7550,1155,762
7555,1162,764
7560,1153,767
7565,1145,768
7570,1142,772
7575,1137,774
7580,1129,773
7585,1126,778
7590,1118,778
7595,1128,786
7600,1121,785
7605,1121,785
7610,1111,793
7615,1110,794
7620,1109,797
7625,1105,795
7630,1105,801
7635,1102,807
7640,1103,813
7645,1098,811
7650,1087,813
7655,1098,812
7660,1081,814
7665,1089,815
7670,1084,819
7675,1093,819
7680,1078,826
7685,1068,825
7690,1073,833
7695,1070,829
7700,1069,831
7705,1073,839
7710,1060,831
7715,1050,833
7720,1051,837
7725,1048,834
7730,1043,834
7735,1045,840
7740,1036,844
7745,1030,840
7750,1016,843
7755,1013,847
7760,1013,837
7765,1004,838
7770,991,836
7775,986,840
7780,974,840
7785,963,841
7790,955,832
7795,963,837
7800,949,837
7805,935,831
7810,927,831
7815,915,835
7820,902,832
7825,902,827
7830,876,832
7835,876,828
7840,873,832
7845,866,826
7850,849,832
7855,831,832
7860,836,827
7865,828,824
7870,814,826
7875,803,825
7880,798,825
7885,790,823
7890,783,822
7895,779,826
7900,775,825
7905,766,818
7910,757,820
7915,764,824
7920,753,822
7925,750,824
7930,756,817
7935,741,816
7940,743,821
7945,756,819
7950,750,819
7955,755,813
7960,750,822
7965,764,819
7970,763,817
7975,764,820
7980,771,814
7985,781,813
7990,789,807
7995,788,810
8000,801,809
8005,808,807
8010,824,811
8015,826,805
8020,842,813
8025,853,802
8029,867,804
8035,875,802
8039,887,803
8045,907,802
8050,906,803
8055,925,798
8060,946,794
8064,951,798
8070,963,792
8074,978,790
8080,988,788
8085,1007,785
8090,1013,782
8095,1037,781
8100,1033,783
8105,1057,778
8109,1065,779
8115,1078,776
8119,1087,771
8125,1096,773
8130,1106,768
8135,1111,759
8140,1119,762
8145,1135,756
8150,1141,762
8154,1151,763
8160,1158,760
8164,1156,756
8170,1163,753
8175,1176,755
8180,1181,752
8185,1182,754
8189,1184,745
8195,1178,749
8200,1194,744
8205,1187,746
8210,1182,750
8215,1190,746
8220,1190,750
8225,1187,747
8230,1198,746
8235,1181,741
8240,1186,746
8245,1180,748
8250,1180,750
8255,1177,751
8260,1168,754
8265,1174,754
8270,1163,750
8275,1171,756
8280,1158,757
8285,1158,757
8290,1153,762
8295,1157,771
8300,1163,763
8305,1142,771
8310,1131,770
8315,1133,774
8320,1120,772
8325,1126,775
8330,1128,783
8335,1124,778
8340,1113,786
8345,1118,790
8350,1110,788
8355,1110,800
8360,1096,801
8365,1115,802
8370,1104,800
8375,1106,805
8380,1086,809
8385,1092,813
8390,1089,815
8395,1081,817
8400,1088,820
8405,1086,814
8410,1072,818
8415,1080,826
8420,1080,823
8425,1075,825
8430,1077,828
8435,1071,825
8440,1059,835
8445,1063,833
8450,1056,839
8455,1057,834
8460,1062,835
8465,1051,833
8470,1033,836
8475,1039,840
8480,1024,836
8485,1013,833
8490,1017,838
8495,1012,837
8500,1016,842
8505,990,839
8510,994,833
8515,978,839
8520,980,835
8525,974,838
8530,960,838
8535,947,839
8540,941,840
8545,932,836
8550,917,836
8555,927,833
8560,906,830
8565,890,829
8570,880,833
8575,871,834
8580,859,825
8585,842,827
8590,847,828
8595,833,827
8600,823,826
8605,805,826
8610,808,822
8615,789,826
8620,793,828
8625,785,828
8630,780,825
8635,775,822
8640,770,819
8645,770,817
8650,758,821
8655,762,823
8660,757,812
8665,748,820
8670,750,820
8675,753,818
8680,755,813
8685,747,814
8690,752,819
8695,754,816
8700,743,813
8705,756,816
8710,760,817
8715,772,821
8720,773,812
8725,782,814
8730,787,815
8735,804,809
8740,805,811
8745,811,803
8750,818,809
8755,838,808
8760,847,801
8765,857,808
8770,882,806
8775,889,801
8780,891,803
8785,912,805
8790,926,800
8795,935,797
8800,951,795
8805,954,794
8810,972,792
8815,985,792
8820,1007,789
8825,1017,787
8830,1024,787
8835,1035,779
8840,1046,783
8845,1063,772
8850,1062,777
8855,1075,774
8860,1100,769
8865,1107,768
8870,1120,769
8875,1122,764
8880,1136,758
8885,1135,757
8890,1150,759
8895,1151,753
8900,1158,761
8905,1169,756
8910,1161,753
8915,1165,752
8920,1183,753
8925,1175,748
8930,1191,751
8935,1184,751
8940,1182,748
8945,1189,754
8950,1199,749
8955,1191,736
8960,1190,742
8965,1174,747
8970,1191,747
8975,1186,756
8980,1186,752
8985,1190,749
8990,1177,751
8995,1174,750
9000,1172,753
9005,1180,758
9010,1170,753
9015,1159,762
9020,1157,764
9025,1151,761
9030,1152,765
9035,1143,764
9040,1154,766
9045,1141,769
9050,1140,777
9055,1129,773
9060,1126,777
9065,1129,778
9070,1124,780
9075,1117,785
9080,1105,788
9085,1111,793
9090,1109,796
9095,1105,801
9100,1109,798
9105,1104,805
9110,1100,802
9115,1094,803
9120,1098,810
9125,1092,813
9130,1089,815
9135,1084,817
9140,1092,818
9145,1083,823
9150,1091,818
9155,1082,825
9160,1068,826
9165,1071,830
9170,1064,830
9175,1071,832
9180,1064,835
9185,1057,836
9190,1061,835
9195,1052,839
9200,1042,839
9205,1048,838
9210,1038,837
9215,1029,839
9220,1025,839
9225,1021,837
9230,1012,838
9235,1006,837
9240,1003,838
9245,988,842
9250,979,844
9255,977,835
9260,964,833
9265,959,839
9270,947,832
9275,938,830
9280,934,835
9285,920,827
9290,905,837
9295,901,836
9300,890,834
9305,890,832
9310,876,835
9315,863,831
9320,843,829
9325,857,823
9330,839,827
9335,831,824
9340,815,824
9345,807,821
9350,802,829
9355,794,826
9360,791,824
9365,769,820
9370,776,821
9375,773,824
9380,759,824
9385,755,821
9390,750,823
9395,755,818
9400,748,821
9405,747,817
9410,745,816
9415,750,820
9420,755,815
9425,756,813
9430,752,820
9435,752,822
9440,756,816
9445,761,814
9450,764,812
9455,777,815
9460,778,811
9465,791,811
9470,799,810
9475,800,815
9480,812,815
9485,826,806
9490,832,809
9495,854,808
9500,856,803
9505,859,808
9510,893,802
9515,901,801
9520,903,797
9525,921,799
9530,934,794
9535,945,799
9540,967,789
9545,982,792
9550,978,788
9555,1002,788
9560,1015,793
9565,1017,790
9570,1037,784
9575,1055,778
9580,1068,773
9585,1071,777
9590,1085,770
9595,1099,772
9600,1101,768
9605,1112,774
9610,1122,765
9615,1128,767
9620,1133,764
9625,1149,760
9630,1148,759
9635,1150,754
9640,1169,760
9645,1177,759
9650,1169,756
9655,1179,754
9660,1174,750
9665,1176,753
9670,1183,749
9675,1193,747
9680,1178,743
9685,1190,750
9690,1182,751
9695,1180,746
9700,1192,745
9705,1188,749
9710,1179,745
9715,1174,749
9720,1181,744
9725,1176,750
9730,1181,749
9735,1175,757
9740,1156,754
9745,1164,756
9750,1152,762
9755,1161,757
9760,1149,766
9765,1145,766
9770,1151,762
9775,1152,768
9780,1135,769
9785,1128,775
9790,1131,774
9795,1132,778
9800,1125,781
9805,1123,782
9810,1121,786
9815,1116,791
9820,1115,790
9825,1111,790
9830,1106,799
9835,1104,797
9840,1106,810
9845,1096,802
9850,1107,804
9855,1097,809
9860,1085,812
9865,1082,813
9870,1091,816
9875,1084,818
9880,1080,824
9885,1083,826
9890,1082,824
9895,1073,823
9900,1073,828
9905,1070,827
9910,1068,833
9915,1071,830
9920,1052,832
9925,1057,836
9930,1050,837
9935,1048,839
9940,1044,841
9945,1037,838
9950,1038,835
9955,1013,836
9960,1029,842
9965,1022,838
9970,1016,838
9975,999,835
9980,982,834
9985,990,836
9990,965,834
9995,966,834
10000,965,835
10005,964,835
10010,943,838
10015,941,832
10020,921,836
10025,910,842
10030,895,831
10035,902,830
10040,889,830
10045,873,833
10050,874,832
10055,860,827
10060,842,827
10065,837,828
10070,829,827
10075,823,827
10080,810,824
10085,805,826
10090,796,824
10095,788,827
10100,789,823
10105,776,821
10110,768,822
10115,763,824
10120,761,824
10125,751,819
10130,757,820
10135,747,826
10140,754,819
10145,752,819
10150,752,819
10155,754,820
10160,746,819
10165,750,815
10170,748,817
10175,743,815
10180,767,818
10185,772,813
10190,771,812
10195,776,810
10200,792,813
10205,790,818
10210,805,817
10215,823,807
10220,827,806
10225,828,812
10230,841,805
10235,848,805
10240,870,807
10245,882,807
10250,891,803
10255,899,802
10260,919,803
10265,931,797
10270,941,793
10275,956,796
10280,961,794
10285,979,793
10290,991,784
10295,1008,788
10300,1021,786
10305,1039,786
10310,1050,777
10315,1054,783
10320,1075,775
10325,1076,773
10330,1087,771
10335,1099,768
10340,1115,770
10345,1110,768
10350,1129,767
10355,1134,767
10360,1138,761
10365,1144,761
10370,1149,755
10375,1161,761
10380,1166,753
10385,1166,750
10390,1181,752
10395,1186,743
10400,1180,749
10405,1190,750
10410,1186,746
10415,1188,744
10420,1190,748
10425,1190,742
10430,1181,750
10435,1184,747
10440,1190,749
10445,1184,745
10450,1181,742
10455,1183,749
10460,1184,749
10465,1180,747
10470,1173,753
10475,1176,757
10480,1164,759
10485,1170,756
10490,1157,758
10495,1158,764
10500,1156,761
10505,1150,767
10510,1140,772
10515,1134,764
10520,1130,770
10525,1136,778
10530,1141,777
10535,1127,780
10540,1121,784
10545,1116,786
10550,1114,783
10555,1117,792
10560,1119,796
10565,1112,793
10570,1108,799
10575,1106,800
10580,1105,811
10585,1103,806
10590,1095,806
10595,1102,808
10600,1091,820
10605,1089,818
10610,1082,818
10615,1084,820
10620,1071,828
10625,1081,823
10630,1076,823
10635,1073,828
10640,1071,828
10645,1071,824
10650,1066,830
10655,1054,830
10660,1066,834
10665,1056,834
10670,1051,839
10675,1052,833
10680,1032,839
10685,1039,843
10690,1020,842
10695,1027,838
10700,1020,836
10705,1015,844
10710,1005,834
10715,992,843
10720,996,836
10725,976,842
10730,982,839
10735,951,835
10740,954,835
10745,944,838
10750,937,831
10755,926,836
10760,915,837
10765,907,835
10770,904,830
10775,893,829
10780,874,832
10785,865,835
10790,854,831
10795,841,827
10800,840,828
10805,836,828
10810,825,829
10815,821,828
10820,804,828
10825,795,823
10830,779,821
10835,781,820
10840,771,818
10845,766,822
10850,763,823
10855,754,821
10860,757,821
10865,748,818
10870,754,819
10875,747,816
10880,751,821
10885,744,821
10890,751,817
10895,744,816
10900,751,814
10905,749,814
10910,750,814
10915,762,815
10920,766,818
10925,772,810
10930,777,812
10935,791,813
10940,797,813
10945,802,803
10950,807,813
10955,816,806
10960,825,807
10965,841,806
10970,848,807
10975,861,805
10980,874,797
10985,893,802
10990,899,808
10995,913,797
11000,926,791
11005,931,792
11010,946,795
11015,976,788
11020,987,793
11025,991,786
11030,1010,786
11035,1021,787
11040,1032,784
11045,1037,784
11050,1048,778
11055,1074,777
11060,1076,774
11065,1085,775
11070,1093,772
11075,1109,769
11080,1122,763
11085,1123,760
11090,1124,762
11095,1141,764
11100,1147,759
11105,1149,758
11110,1161,762
11115,1164,756
11120,1167,752
11125,1168,757
11130,1173,752
11135,1181,752
11140,1186,751
11145,1178,744
11150,1183,753
11155,1185,750
11160,1191,747
11165,1193,749
11170,1187,747
11175,1181,743
11180,1185,751
11185,1185,750
11190,1181,747
11195,1173,749
11200,1174,749
11205,1172,752
11210,1168,754
11215,1162,755
11220,1166,756
11225,1162,761
11230,1161,758
11235,1148,764
11240,1142,759
11245,1142,762
11250,1132,767
11255,1135,767
11260,1141,775
11265,1133,780
11270,1123,784
11275,1123,781
11280,1124,783
11285,1117,785
11290,1117,785
11295,1102,800
11300,1107,789
11305,1105,798
11310,1102,798
11315,1108,803
11320,1103,805
11325,1095,813
11330,1097,815
11335,1099,813
11340,1093,812
11345,1084,820
11350,1088,820
11355,1078,820
11360,1083,825
11365,1073,823
11370,1079,827
11375,1073,832
11380,1069,830
11385,1067,828
11390,1065,838
11395,1064,836
11400,1061,838
11405,1045,830
11410,1056,837
11415,1042,837
11420,1042,838
11425,1021,843
11430,1024,845
11435,1019,838
11440,1013,840
11445,1008,839
11450,998,835
11455,989,840
11460,977,831
11465,977,831
11470,960,834
11475,956,832
11480,942,835
11485,935,834
11490,936,834
11495,925,835
11500,904,837
11505,902,835
11510,900,829
11515,891,826
11520,871,829
11525,861,828
11530,857,829
11535,842,829
11540,842,824
11545,829,825
11550,812,829
11555,806,826
11560,796,825
11565,789,825
11570,779,823
11575,787,818
11580,781,823
11585,772,820
11590,753,820
11595,757,815
11600,759,818
11605,748,818
11610,748,823
11615,746,818
11620,756,821
11625,748,817
11630,739,817
11635,748,813
11640,748,816
11645,759,818
11650,759,818
11655,764,814
11660,769,813
11665,774,814
11670,777,811
11675,786,812
11680,798,806
11685,804,808
11690,816,815
11695,823,808
11700,835,806
11705,855,804
11710,861,808
11715,877,801
11720,880,799
11725,894,799
11730,911,801
11735,928,793
11740,929,796
11745,942,791
11750,966,796
11755,979,793
11760,992,790
11765,998,784
11770,1010,790
11775,1025,783
11780,1044,777
11785,1059,782
11790,1061,777
11795,1081,770
11800,1084,776
11805,1086,777
11810,1114,766
11815,1114,769
11820,1122,764
11825,1137,767
11830,1147,764
11835,1145,756
11840,1142,762
11845,1160,757
11850,1164,752
11855,1170,755
11860,1172,752
11865,1181,750
11870,1185,749
11875,1173,748
11880,1182,754
11885,1175,751
11890,1179,749
11895,1188,741
11900,1190,747
11905,1192,753
11910,1184,744
11915,1181,744
11920,1183,750
11925,1181,753
11930,1187,749
11935,1178,752
11940,1176,745
11945,1167,757
11950,1165,754
11955,1162,756
11960,1161,760
11965,1161,763
11970,1159,758
11975,1147,768
11980,1146,765
11985,1138,774
11990,1133,769
11995,1130,772
12000,1133,777
12005,1132,780
12010,1129,782
12015,1120,785
12020,1116,789
12025,1119,788
12030,1111,787
12035,1119,794
12040,1107,798
12045,1106,805
12050,1098,806
12055,1104,804
12060,1098,809
12065,1095,811
12070,1088,809
12075,1093,812
12080,1093,819
12085,1086,816
12090,1084,819
12095,1078,826
12100,1080,826
12105,1078,830
12110,1069,830
12115,1069,831
12120,1072,830
12125,1069,838
12130,1060,832
12135,1052,837
12140,1052,838
12145,1047,836
12150,1040,839
12155,1042,838
12160,1037,839
12165,1024,835
12170,1011,837
12175,1017,838
12180,999,835
12185,992,838
12190,993,838
12195,981,839
12200,973,838
12205,970,838
12210,961,836
12215,946,835
12220,936,835
12225,938,835
12230,927,840
12235,911,836
12240,901,835
12245,889,832
12250,884,830
12255,876,828
12260,873,824
12265,864,828
12270,839,822
12275,844,826
12280,824,825
12285,816,831
12290,803,825
12295,808,823
12300,799,828
12305,791,823
12310,780,818
12315,773,820
12320,773,821
12325,757,821
12330,758,829
12335,752,820
12340,755,820
12345,754,819
12350,753,820
12355,747,818
12360,755,812
12365,757,813
12370,747,809
12375,742,819
12380,763,821
12385,761,816
12390,776,818
12395,758,813
12400,767,812
12405,779,812
12410,778,810
12415,794,812
12420,797,809
12425,814,814
12430,811,809
12435,842,802
12440,860,802
12445,856,808
12450,860,806
12455,878,802
12460,892,802
12465,899,806
12470,914,803
12475,932,795
12480,939,793
12485,961,795
12490,969,795
12495,990,791
12500,998,784
12505,1003,790
12510,1025,781
12515,1042,781
12520,1043,780
12525,1056,780
12530,1070,779
12535,1073,776
12540,1087,774
12545,1097,771
12550,1126,766
12555,1113,762
12560,1137,766
12565,1138,762
12570,1141,758
12575,1142,761
12580,1152,760
12585,1167,754
12590,1164,753
12595,1178,751
12600,1176,752
12605,1182,754
12610,1189,747
12615,1185,754
12620,1186,750
12625,1182,744
12630,1181,745
12635,1185,752
12640,1187,746
12645,1187,747
12650,1183,748
12655,1183,749
12660,1182,746
12665,1178,742
12670,1178,755
12675,1172,752
12680,1173,751
12685,1181,756
12690,1161,753
12695,1150,755
12700,1164,758
12705,1150,761
12710,1153,760
12715,1157,769
12720,1145,765
12725,1139,772
12730,1126,771
12735,1133,771
12740,1128,776
12745,1120,781
12750,1113,780
12755,1116,782
12760,1114,787
12765,1124,791
12770,1116,794
12775,1099,793
12780,1098,798
12785,1095,799
12790,1100,802
12795,1101,808
12800,1087,809
12805,1095,815
12810,1103,815
12815,1094,820
12820,1073,824
12825,1089,818
12830,1084,823
12835,1078,824
12840,1084,824
12845,1067,828
12850,1075,832
12855,1068,830
12860,1069,834
12865,1064,835
12870,1049,832
12875,1060,832
12880,1043,838
12885,1041,837
12890,1039,835
12895,1031,842
12900,1036,839
12905,1015,835
12910,1006,839
12915,1000,836
12920,998,838
12925,996,841
12930,985,836
12935,979,838
12940,969,836
12945,960,834
12950,954,835
12955,940,836
12960,942,835
12965,926,828
12970,919,834
12975,910,834
12980,889,832
12985,903,831
12990,881,840
12995,865,830
13000,855,826
13005,855,832
13010,839,824
13015,827,829
13020,819,823
13025,802,826
13030,804,822
13035,801,826
13040,799,822
13045,775,829
13050,770,819
13055,765,828
13060,763,824
13065,759,821
13070,753,818
13075,745,822
13080,754,821
13085,750,818
13090,749,817
13095,753,821
13100,749,817
13105,750,817
13110,757,820
13115,750,817
13120,762,819
13125,771,815
13130,766,814
13135,770,817
13140,776,808
13145,783,812
13150,797,809
13155,805,809
13160,815,806
13165,827,810
13170,825,803
13175,845,804
13180,848,806
13185,866,806
13190,879,801
13195,895,799
13200,907,801
13205,916,798
13210,931,794
13215,937,792
13220,957,797
13225,976,789
13230,975,790
13235,1000,784
13240,1004,781
13245,1011,782
13250,1022,787
13255,1044,780
13260,1056,780
13265,1070,779
13270,1077,770
13275,1090,771
13280,1101,769
13285,1108,772
13290,1116,767
13295,1133,767
13300,1137,758
13305,1141,763
13310,1145,761
13315,1151,754
13320,1162,762
13325,1161,758
13330,1179,756
13335,1174,752
13340,1180,746
13345,1180,748
13350,1194,752
13355,1184,745
13360,1182,745
13365,1183,749
13370,1197,745
13375,1190,748
13380,1184,748
13385,1192,746
13390,1188,750
13395,1180,750
13400,1175,753
13405,1183,751
13410,1172,751
13415,1161,751
13420,1166,757
13425,1161,752
13430,1166,757
13435,1147,756
13440,1159,761
13445,1150,759
13450,1147,765
13455,1148,765
13460,1136,771
13465,1137,772
13470,1130,777
13475,1127,779
13480,1138,777
13485,1118,784
13490,1117,778
13495,1113,786
13500,1106,792
13505,1113,792
13510,1113,795
13515,1102,799
13520,1103,798
13525,1106,798
13530,1112,806
13535,1095,818
13540,1089,807
13545,1095,814
13550,1092,819
13555,1085,814
13560,1089,823
13565,1080,824
13570,1089,821
13575,1072,826
13580,1078,828
13585,1070,832
13590,1067,833
13595,1070,830
13600,1062,829
13605,1059,836
13610,1058,838
13615,1044,841
13620,1047,835
13625,1040,839
13630,1032,836
13635,1041,837
13640,1021,843
13645,1019,838
13650,1008,840
13655,1007,834
13660,993,843
13665,988,835
13670,978,838
13675,968,838
13680,958,840
13685,952,837
13690,945,832
13695,943,837
13700,924,831
13705,918,830
13710,910,825
13715,904,829
13720,889,832
13725,880,829
13730,868,823
13735,865,831
13740,846,824
13745,846,827
13750,838,826
13755,820,827
13760,813,826
13765,804,828
13770,804,825
13775,796,828
13780,788,820
13785,775,821
13790,775,830
13795,775,819
13800,764,821
13805,756,822
13810,748,819
13815,736,819
13820,745,815
13825,748,817
13830,743,813
13835,748,819
13840,748,822
13845,744,814
13850,749,820
13855,755,818
13860,754,815
13865,769,815
13870,775,810
13875,780,812
13880,779,813
13885,787,813
13890,790,811
13895,810,814
13900,818,813
13905,831,805
13910,834,813
13915,849,805
13920,869,805
13925,861,801
13930,884,800
13935,893,799
13940,903,798
13945,933,799
13950,927,800
13955,944,790
13960,969,789
13965,974,786
13970,990,790
13975,1006,787
13980,1010,789
13985,1021,783
13990,1028,785
13995,1048,772
14000,1069,783
14005,1076,770
14010,1080,771
14015,1098,771
14020,1105,768
14025,1115,767
14030,1119,765
14035,1135,759
14040,1134,764
14045,1146,760
14050,1157,755
14055,1157,758
14060,1170,760
14065,1166,754
14070,1172,750
14075,1170,754
14080,1180,755
14085,1181,749
14090,1192,747
14095,1193,747
14100,1193,745
14105,1181,747
14110,1190,750
14115,1186,756
14120,1196,752
14125,1187,746
14130,1183,754
14135,1185,748
14140,1183,745
14145,1176,751
14150,1167,750
14155,1179,756
14160,1171,753
14165,1163,756
14170,1150,761
14175,1152,762
14180,1148,758
14185,1146,766
14190,1158,770
14195,1134,771
14200,1136,770
14205,1136,781
14210,1139,778
14215,1126,774
14220,1128,779
14225,1121,786
14230,1113,786
14235,1115,791
14240,1111,795
14245,1109,794
14250,1103,793
14255,1123,795
14260,1103,802
14265,1097,803
14270,1106,808
14275,1093,808
14280,1101,812
14285,1095,816
14290,1088,818
14295,1083,820
14300,1079,826
14305,1085,829
14310,1086,827
14315,1072,823
14320,1073,829
14325,1070,831
14330,1066,832
14335,1062,833
14340,1056,837
14345,1053,841
14350,1055,839
14355,1045,834
14360,1047,834
14365,1031,834
14370,1034,836
14375,1025,842
14380,1022,840
14385,1005,837
14390,1006,835
14395,993,836
14400,982,838
14405,986,833
14410,980,831
14415,966,832
14420,960,834
14425,942,836
14430,935,832
14435,929,835
14440,928,830
14445,924,830
14450,905,834
14455,893,830
14460,875,833
14465,871,831
14470,863,834
14475,853,830
14480,845,830
14485,838,823
14490,829,821
14495,811,828
14500,808,826
14505,803,828
14510,796,827
14515,790,821
14520,771,815
14525,775,823
14530,764,819
14535,762,827
14540,757,819
14545,756,819
14550,751,822
14555,752,813
14560,744,814
14565,742,823
14570,750,817
14575,747,819
14580,747,817
14585,750,814
14590,764,813
14595,767,811
14600,762,815
14605,771,819
14610,778,813
14615,774,816
14620,782,811
14625,798,809
14630,803,806
14635,818,805
14640,821,806
14645,843,805
14650,847,808
14655,867,803
14660,872,803
14665,881,802
14670,897,799
14675,905,799
14680,925,793
14685,935,797
14690,951,790
14695,959,793
14700,976,792
14705,999,788
14710,1003,789
14715,1008,785
14720,1025,786
14725,1039,784
14730,1058,782
14735,1061,777
14740,1070,775
14745,1081,770
14750,1101,771
14755,1095,764
14760,1104,769
14765,1124,764
14770,1139,761
14775,1135,766
14780,1153,755
14785,1150,758
14790,1158,751
14795,1170,754
14800,1181,756
14805,1167,757
14810,1189,751
14815,1173,745
14820,1180,754
14825,1182,747
14830,1178,748
14835,1175,749
14840,1183,753
14845,1180,745
14850,1187,747
14855,1189,747
14860,1187,743
14865,1187,751
14870,1185,744
14875,1179,747
14880,1170,752
14885,1171,758
14890,1173,754
14895,1168,756
14900,1166,752
14905,1160,754
14910,1155,761
14915,1147,762
14920,1148,764
14925,1147,764
14930,1141,772
14935,1134,768
14940,1140,772
14945,1130,776
14950,1134,771
14955,1127,778
14960,1114,788
14965,1117,787
14970,1123,798
14975,1110,789
14980,1104,793
14985,1107,794
14990,1109,797
14995,1102,799
15000,1108,807
15005,1097,809
15010,1089,812
15015,1092,809
15020,1088,817
15025,1089,814
15030,1083,818
15035,1088,823
15040,1085,829
15045,1074,826
15050,1081,827
15055,1076,828
15060,1063,829
15065,1068,834
15070,1061,830
15075,1061,831
15080,1056,838
15085,1047,836
15090,1039,836
15095,1041,839
15100,1046,833
15105,1032,837
15110,1025,837
15115,1023,838
15120,1006,835
15125,1001,841
15130,1001,838
15135,992,837
15140,981,838
15145,978,836
15150,969,833
15155,962,837
15160,945,836
15165,935,842
15170,932,840
15175,930,829
15180,913,840
15185,901,833
15190,894,829
15195,878,834
15200,881,831
15205,864,829
15210,861,827
15215,848,824
15220,840,827
15225,825,824
15230,823,825
15235,810,829
15240,798,829
15245,791,823
15250,780,824
15255,782,822
15260,772,820
15265,774,823
15270,762,827
15275,762,820
15280,753,818
15285,754,818
15290,740,821
15295,747,818
15300,752,819
15305,745,818
15310,750,815
15315,760,818
15320,760,812
15325,757,817
15330,752,819
15335,760,819
15340,774,818
15345,771,814
15350,773,813
15355,787,812
15360,789,812
15365,795,810
15370,815,812
15375,823,806
15380,836,805
15385,841,802
15390,852,799
15395,871,805
15400,880,802
15405,894,798
15410,911,799
15415,918,800
15420,931,797
15425,943,791
15430,958,801
15435,968,795
15440,983,787
15445,988,787
15450,1004,785
15455,1016,789
15460,1038,782
15465,1039,782
15470,1052,783
15475,1067,771
15480,1074,772
15485,1098,771
15490,1098,769
15495,1109,775
15500,1118,766
15505,1131,771
15510,1133,761
15515,1142,763
15520,1150,754
15525,1160,756
15530,1172,755
15535,1164,750
15540,1172,755
15545,1171,755
15550,1180,751
15555,1188,745
15560,1184,753
15565,1195,751
15570,1185,748
15575,1190,748
15580,1198,745
15585,1177,749
15590,1195,744
15595,1191,750
15600,1183,751
15605,1176,750
15610,1181,748
15615,1177,755
15620,1180,748
15625,1171,755
15630,1166,752
15635,1171,757
15640,1166,756
15645,1163,762
15650,1159,761
15655,1157,761
15660,1145,760
15665,1139,765
15670,1144,770
15675,1137,774
15680,1126,775
15685,1133,777
15690,1129,778
15695,1118,782
15700,1117,785
15705,1120,788
15710,1121,789
15715,1102,793
15720,1115,796
15725,1105,799
15730,1113,801
15735,1107,806
15740,1099,806
15745,1097,808
15750,1091,811
15755,1091,813
15760,1089,818
15765,1090,818
15770,1085,818
15775,1088,822
15780,1069,825
15785,1069,826
15790,1069,823
15795,1064,829
15800,1074,835
15805,1064,835
15810,1067,834
15815,1072,831
15820,1062,834
15825,1059,837
15830,1032,839
15835,1036,837
15840,1035,837
15845,1028,835
15850,1030,840
15855,1017,839
15860,1019,838
15865,998,838
15870,990,830
15875,987,839
15880,973,835
15885,971,836
15890,965,837
15895,951,829
15900,950,837
15905,931,842
15910,919,833
15915,919,832
15920,904,831
15925,905,835
15930,890,830
15935,885,829
15940,871,828
15945,851,827
15950,858,828
15955,839,833
15960,832,825
15965,822,830
15970,814,828
15975,804,825
15980,798,826
15985,782,826
15990,773,824
15995,777,826
16000,772,820
16004,759,826
16010,765,819
16015,758,823
16020,753,817
16024,749,818
16030,752,816
16035,749,822
16040,740,818
16045,743,818
16050,758,816
16055,756,818
16059,747,819
16065,761,817
16070,751,814
16075,758,818
16079,767,814
16085,780,813
16090,790,810
16094,790,813
16100,796,810
16105,804,809
16110,812,812
16114,832,809
16120,838,804
16125,848,803
16129,874,806
16135,871,804
16140,891,802
16145,897,804
16149,910,799
16155,934,800
16160,938,790
16165,953,793
16170,965,791
16175,980,787
16180,993,786
16184,1011,790
16190,1023,786
16195,1023,782
16200,1041,785
16204,1053,782
16210,1063,778
16215,1081,776
16219,1089,770
16225,1092,772
16230,1104,769
16235,1122,767
16239,1130,763
16245,1141,761
16250,1143,766
16254,1145,759
16260,1159,755
16265,1163,755
16270,1172,751
16274,1174,748
16280,1182,753
16285,1185,751
16290,1181,750
16295,1179,750
16300,1178,750
16305,1184,751
16309,1194,747
16315,1189,747
16320,1185,748
16325,1184,752
16329,1175,742
16335,1180,751
16340,1187,746
16344,1173,750
16350,1180,758
16355,1178,752
16360,1165,756
16364,1165,748
16370,1163,754
16375,1166,756
16379,1172,758
16385,1154,763
16390,1145,758
16395,1144,763
16400,1145,769
16405,1151,769
16410,1134,778
16415,1128,770
16420,1141,780
16425,1125,779
16430,1127,783
16435,1115,782
16440,1114,787
16445,1115,786
16450,1104,793
16455,1112,790
16460,1103,800
16465,1103,802
16470,1105,803
16475,1094,804
16480,1105,809
16485,1093,813
16490,1089,813
16495,1090,817
16500,1085,816
16505,1091,821
16510,1079,822
16515,1080,824
16520,1074,825
16525,1068,833
16530,1074,828
16535,1060,824
16540,1069,834
16545,1068,836
16550,1062,833
16555,1059,835
16560,1048,841
16565,1057,837
16570,1048,841
16575,1032,838
16580,1037,842
16585,1022,838
16590,1017,841
16595,1014,835
16600,1002,843
16605,1000,840
16610,991,841
16615,977,837
16620,974,833
16625,970,837
16630,965,835
16635,946,839
16640,936,835
16645,923,831
16650,914,832
16655,904,837
16660,890,830
16665,886,834
16670,879,833
16675,866,832
16680,864,833
16685,844,827
16690,842,830
16695,842,824
16700,830,832
16705,817,826
16710,812,826
16715,794,825
16720,789,825
16725,784,823
16730,769,826
16735,772,822
16740,770,825
16745,754,825
16750,758,822
16755,750,824
16760,752,814
16765,750,823
16770,751,815
16775,747,815
16780,749,821
16785,741,816
16790,746,818
16795,751,816
16800,757,818
16805,759,817
16810,770,814
16815,780,815
16820,770,815
16825,795,813
16830,791,814
16835,797,808
16840,810,813
16845,816,810
16850,828,814
16855,838,805
16860,852,806
16865,861,803
16870,871,804
16875,884,802
16880,897,794
16885,906,795
16890,918,799
16895,940,795
16900,949,795
16905,959,792
16910,983,796
16915,999,793
16920,1007,790
16925,1010,785
16930,1036,786
16935,1037,781
16940,1044,779
16945,1061,776
16950,1070,772
16955,1085,777
16960,1093,772
16965,1108,773
16970,1110,761
16975,1120,760
16980,1125,767
16985,1140,762
16990,1149,762
16995,1149,759
17000,1165,757
17005,1165,751
17010,1166,754
17015,1176,754
17020,1176,752
17025,1181,746
17030,1178,746
17035,1191,755
17040,1187,753
17045,1185,743
17050,1190,749
17055,1189,743
17060,1189,748
17065,1179,756
17070,1187,749
17075,1194,747
17080,1184,747
17085,1181,744
17090,1175,751
17095,1175,750
17100,1155,752
17105,1169,750
17110,1164,754
17115,1154,757
17120,1150,763
17125,1162,761
17130,1151,762
17135,1141,768
17140,1136,770
17145,1141,775
17150,1138,775
17155,1136,775
17160,1133,778
17165,1125,784
17170,1110,783
17175,1119,786
17180,1117,784
17185,1110,787
17190,1108,797
17195,1119,798
17200,1105,803
17205,1102,799
17210,1091,805
17215,1099,811
17220,1089,807
17225,1100,816
17230,1092,816
17235,1081,813
17240,1086,816
17245,1088,819
17250,1078,825
17255,1080,824
17260,1081,827
17265,1078,832
17270,1064,833
17275,1074,828
17280,1060,831
17285,1055,832
17290,1055,836
17295,1060,840
17300,1058,839
17305,1045,836
17310,1038,834
17315,1029,833
17320,1032,840
17325,1016,837
17330,1012,839
17335,1004,842
17340,1001,839
17345,992,842
17350,984,836
17355,974,838
17360,966,833
17365,957,838
17370,955,839
17375,949,830
17380,936,831
17385,916,836
17390,910,829
17395,907,832
17400,895,828
17405,882,834
17410,872,831
17415,856,830
17420,847,839
17425,848,833
17430,836,828
17435,823,825
17440,816,827
17445,813,827
17450,811,827
17455,794,828
17460,787,824
17465,779,829
17470,777,820
17475,773,820
17480,767,821
17485,756,818
17490,751,817
17495,758,822
17500,751,815
17505,754,822
17510,754,818
17515,755,814
17520,753,814
17525,759,819
17530,754,819
17535,751,817
17540,762,812
17545,759,816
17550,772,816
17555,765,811
17560,781,808
17565,790,811
17570,792,813
17575,812,808
17580,818,817
17585,823,812
17590,841,813
17595,837,803
17600,869,802
17605,867,801
17610,883,805
17615,888,802
17620,901,800
17625,923,798
17630,920,800
17635,941,798
17640,964,791
17645,975,790
17650,973,787
17655,998,785
17660,1013,787
17665,1019,782
17670,1038,778
17675,1051,775
17680,1062,779
17685,1062,777
17690,1073,775
17695,1100,765
17700,1103,771
17705,1111,764
17710,1125,770
17715,1135,762
17720,1135,767
17725,1140,765
17730,1145,760
17735,1166,758
17740,1166,750
17745,1166,754
17750,1169,754
17755,1179,748
17760,1178,748
17765,1185,746
17770,1189,749
17775,1182,747
17780,1177,747
17785,1186,746
17790,1188,746
17795,1189,749
17800,1183,746
17805,1188,749
17810,1184,746
17815,1182,747
17820,1187,751
17825,1175,750
17830,1166,752
17835,1172,755
17840,1153,749
17845,1167,751
17850,1164,758
17855,1165,764
17860,1164,762
17865,1158,758
17870,1144,767
17875,1148,768
17880,1136,772
17885,1135,771
17890,1132,771
17895,1134,779
17900,1129,782
17905,1131,783
17910,1121,785
17915,1128,787
17920,1112,793
17925,1119,793
17930,1119,795
17935,1103,799
17940,1109,801
17945,1099,804
17950,1085,805
17955,1099,816
17960,1099,812
17965,1090,817
17970,1093,819
17975,1093,811
17980,1078,818
17985,1088,824
17990,1080,822
17995,1085,828
18000,1072,830
18005,1065,829
18010,1061,827
18015,1071,841
18020,1059,833
18025,1056,831
18030,1056,838
18035,1045,838
18040,1041,833
18045,1033,835
18050,1040,836
18055,1031,844
18060,1024,840
18065,1026,838
18070,1011,838
18075,1003,839
18080,996,845
18085,988,839
18090,973,834
18095,954,835
18100,957,837
18105,950,838
18110,940,837
18115,937,837
18120,928,833
18125,922,834
18130,913,836
18135,891,830
18140,894,833
18145,878,833
18150,866,829
18155,861,832
18160,846,830
18165,845,828
18170,834,825
18175,814,824
18180,815,823
18185,806,821
18190,798,823
18195,788,823
18200,779,823
18205,772,816
18210,772,824
18215,756,821
18220,760,817
18225,751,819
18230,759,816
18235,748,821
18240,750,822
18245,750,815
18250,750,820
18255,748,817
18260,750,821
18265,764,813
18270,755,812
18275,757,816
18280,754,813
18285,766,813
18290,779,814
18295,781,814
18300,787,815
18305,793,811
18310,802,816
18315,818,809
18320,816,802
18325,833,810
18330,839,808
18335,857,803
18340,865,805
18345,886,797
18350,892,803
18355,907,799
18360,912,801
18365,932,798
18370,947,798
18375,957,798
18380,969,786
18385,971,789
18390,998,787
18395,1002,783
18400,1013,789
18405,1030,788
18410,1051,786
18415,1051,783
18420,1069,779
18425,1081,779
18430,1085,773
18435,1105,771
18440,1107,770
18445,1123,763
18450,1128,765
18455,1130,763
18460,1141,760
18465,1148,763
18470,1152,757
18475,1156,754
18480,1167,753
18485,1163,752
18490,1171,753
18495,1174,750
18500,1178,754
18505,1179,746
18510,1180,742
18515,1203,751
18520,1188,749
18525,1188,747
18530,1184,744
18535,1193,753
18540,1191,747
18545,1191,752
18550,1171,746
18555,1177,748
18560,1180,749
18565,1176,748
18570,1172,758
18575,1166,750
18580,1166,754
18585,1161,753
18590,1154,765
18595,1156,764
18600,1156,767
18605,1151,765
18610,1144,768
18615,1146,774
18620,1140,777
18625,1133,772
18630,1134,779
18635,1123,781
18640,1120,782
18645,1120,789
18650,1117,784
18655,1111,789
18660,1116,794
18665,1112,790
18670,1109,799
18675,1106,801
18680,1099,805
18685,1095,807
18690,1083,808
18695,1086,811
18700,1084,819
18705,1094,819
18710,1094,820
18715,1088,822
18720,1081,824
18725,1082,818
18730,1067,824
18735,1067,826
18740,1058,832
18745,1068,829
18750,1058,835
18755,1061,834
18760,1048,832
18765,1053,830
18770,1044,837
18775,1053,833
18780,1043,836
18785,1036,831
18790,1032,845
18795,1034,844
18800,1003,838
18805,1002,837
18810,1002,837
18815,994,843
18820,981,838
18825,974,839
18830,971,842
18835,971,831
18840,949,838
18845,938,836
18850,935,836
18855,924,827
18860,914,839
18865,907,835
18870,903,835
18875,882,830
18880,882,833
18885,870,827
18890,862,829
18895,842,831
18900,842,826
18905,836,822
18910,823,829
18915,809,827
18920,814,823
18925,794,824
18930,792,819
18935,780,825
18940,780,826
18945,763,818
18950,763,824
18955,760,818
18960,749,819
18965,758,824
18970,749,822
18975,756,825
18980,748,818
18985,750,821
18990,740,817
18995,750,818
19000,754,812
19005,757,815
19010,748,812
19015,764,822
19020,766,814
19025,766,812
19030,780,818
19035,790,814
19040,787,811
19045,795,813
19050,808,810
19055,809,808
19060,831,815
19065,838,804
19070,847,807
19075,863,806
19080,879,799
19085,885,800
19090,901,805
19095,913,807
19100,920,793
19105,944,790
19110,961,797
19115,965,791
19120,979,789
19125,995,783
19130,1010,789
19135,1013,783
19140,1029,788
19145,1039,785
19150,1058,775
19155,1063,781
19160,1068,770
19165,1090,771
19170,1099,768
19175,1111,768
19180,1119,763
19185,1123,770
19190,1133,766
19195,1127,762
19200,1148,761
19205,1161,755
19210,1162,758
19215,1166,754
19220,1174,755
19225,1172,751
19230,1178,746
19235,1179,750
19240,1183,752
19245,1188,749
19250,1189,747
19255,1187,745
19260,1181,750
19265,1187,751
19270,1185,747
19275,1185,750
19280,1189,749
19285,1179,754
19290,1182,746
19295,1173,748
19300,1173,750
19305,1168,756
19310,1175,757
19315,1162,761
19320,1165,760
19325,1157,760
19330,1156,756
19335,1148,764
19340,1145,764
19345,1138,773
19350,1143,763
19355,1135,769
19360,1133,772
19365,1129,778
19370,1131,773
19375,1126,781
19380,1131,784
19385,1119,787
19390,1114,789
19395,1111,790
19400,1113,796
19405,1115,796
19410,1096,796
19415,1105,807
19420,1096,807
19425,1103,811
19430,1100,803
19435,1086,806
19440,1097,812
19445,1078,818
19450,1094,821
19455,1089,822
19460,1078,827
19465,1078,827
19470,1079,832
19475,1068,827
19480,1070,834
19485,1066,831
19490,1064,833
19495,1054,836
19500,1055,835
19505,1050,836
19510,1049,834
19515,1048,836
19520,1031,838
19525,1030,838
19530,1014,842
19535,1011,843
19540,1014,834
19545,1002,837
19550,1002,842
19555,992,837
19560,986,838
19565,972,833
19570,972,838
19575,959,832
19580,952,834
19585,940,838
19590,938,831
19595,923,834
19600,907,837
19605,892,837
19610,890,831
19615,886,833
19620,877,830
19625,867,826
19630,854,830
19635,849,828
19640,836,825
19645,823,831
19650,809,827
19655,812,829
19660,792,829
19665,797,821
19670,774,820
19675,782,825
19680,770,822
19685,765,821
19690,761,819
19695,760,825
19700,751,817
19705,749,821
19710,744,820
19715,748,820
19720,748,817
19725,754,816
19730,751,816
19735,750,815
19740,747,816
19745,758,816
19750,755,815
19755,765,811
19760,765,819
19765,776,813
19770,782,813
19775,785,809
19780,800,815
19785,801,812
19790,814,812
19795,823,804
19800,837,805
19805,847,811
19810,862,809
19815,874,804
19820,888,805
19825,904,802
19830,918,803
19835,925,794
19840,941,796
19845,948,796
19850,959,789
19855,984,793
19860,979,786
19865,989,793
19870,1011,781
19875,1029,784
19880,1022,785
19885,1047,779
19890,1060,774
19895,1064,774
19900,1085,769
19905,1091,768
19910,1096,768
19915,1114,770
19920,1116,767
19925,1134,759
19930,1143,763
19935,1156,757
19940,1150,758
19945,1154,761
19950,1164,757
19955,1164,755
19960,1173,754
19965,1169,754
19970,1181,755
19975,1182,748
19980,1185,746
19985,1200,759
19990,1184,752
19995,1193,747
20000,1188,748
20005,1190,753
20010,1192,745
20015,1187,749
20020,1185,748
20025,1183,745
20030,1180,751
20035,1179,752
20040,1170,754
20045,1185,746
20050,1173,754
20055,1161,751
20060,1176,757
20065,1151,758
20070,1157,765
20075,1150,765
20080,1155,761
20085,1139,768
20090,1132,768
20095,1142,773
20100,1133,775
20105,1128,779
20110,1124,782
20115,1119,777
20120,1121,783
20125,1118,788
20130,1115,788
20135,1112,795
20140,1112,790
20145,1105,800
20150,1107,803
20155,1106,803
20160,1103,807
20165,1101,807
20170,1098,807
20175,1089,819
20180,1089,815
20185,1086,818
20190,1075,826
20195,1084,823
20200,1081,824
20205,1083,828
20210,1083,824
20215,1072,830
20220,1067,832
20225,1059,834
20230,1061,833
20235,1052,837
20240,1049,841
20245,1052,839
20250,1039,841
20255,1039,841
20260,1030,840
20265,1027,839
20270,1021,842
20275,1017,833
20280,1015,840
20285,1006,841
20290,984,837
20295,986,842
20300,983,840
20305,972,833
20310,960,833
20315,946,832
20320,945,838
20325,930,831
20330,926,833
20335,914,832
20340,902,832
20345,887,831
20350,879,829
20355,874,836
20360,868,833
20365,846,822
20370,848,829
20375,842,826
20380,831,828
20385,822,823
20390,815,822
20395,802,824
20400,796,822
20405,780,824
20410,784,824
20415,786,825
20420,772,821
20425,758,821
20430,758,823
20435,757,818
20440,750,814
20445,745,821
20450,747,823
20455,755,817
20460,755,820
20465,745,816
20470,755,818
20475,754,817
20480,749,810
20485,771,814
20490,769,814
20495,770,818
20500,773,817
20505,787,810
20510,788,812
20515,795,810
20520,810,813
20525,810,812
20530,819,811
20535,836,810
20540,848,812
20545,858,806
20550,857,806
20555,883,799
20560,890,798
20565,896,802
20570,920,798
20575,929,798
20580,944,790
20585,953,791
20590,974,791
20595,976,795
20600,993,791
20605,1013,786
20610,1021,785
20615,1036,781
20620,1044,782
20625,1062,774
20630,1062,770
20635,1084,766
20640,1097,768
20645,1100,772
20650,1108,767
20655,1113,761
20660,1132,764
20665,1145,763
20670,1143,759
20675,1159,756
20680,1157,757
20685,1161,757
20690,1168,756
20695,1169,749
20700,1181,751
20705,1187,745
20710,1184,756
20715,1182,748
20720,1182,750
20725,1187,752
20730,1184,745
20735,1190,744
20740,1186,746
20745,1189,748
20750,1193,749
20755,1187,750
20760,1178,749
20765,1183,745
20770,1175,749
20775,1183,756
20780,1173,755
20785,1172,754
20790,1156,755
20795,1166,748
20800,1161,758
20805,1161,764
20810,1158,760
20815,1148,765
20820,1136,766
20825,1143,770
20830,1149,772
20835,1138,769
20840,1130,778
20845,1119,778
20850,1128,783
20855,1125,787
20860,1114,788
20865,1113,789
20870,1108,800
20875,1117,792
20880,1105,794
20885,1100,802
20890,1106,807
20895,1094,806
20900,1095,805
20905,1099,807
20910,1089,816
20915,1094,818
20920,1091,821
20925,1083,819
20930,1076,823
20935,1084,823
20940,1079,826
20945,1072,826
20950,1066,830
20955,1071,831
20960,1064,832
20965,1060,838
20970,1059,836
20975,1061,836
20980,1049,835
20985,1050,840
20990,1035,836
20995,1035,837
21000,1027,836
21005,1022,838
21010,1016,843
21015,1009,832
21020,1006,838
21025,994,837
21030,981,835
21035,971,835
21040,980,837
21045,958,835
21050,950,836
21055,941,835
21060,943,834
21065,910,834
21070,914,830
21075,921,835
21080,899,839
21085,893,832
21090,877,827
21095,861,826
21100,861,833
21105,856,831
21110,837,824
21115,830,834
21120,825,826
21125,809,832
21130,807,822
21135,803,823
21140,783,827
21145,782,824
21150,775,822
21155,775,819
21160,763,823
21165,762,816
21170,758,825
21175,760,828
21180,758,818
21185,744,818
21190,750,820
21195,744,821
21200,752,821
21205,760,816
21210,751,816
21215,751,819
21220,759,812
21225,757,812
21230,769,814
21235,772,810
21240,780,811
21245,784,807
21250,788,809
21255,802,810
21260,801,809
21265,815,812
21270,830,808
21275,835,807
21280,857,809
21285,865,801
21290,873,802
21295,883,801
21300,891,804
21305,917,798
21310,924,796
21315,940,800
21320,940,791
21325,964,791
21330,985,791
21335,979,790
21340,1013,788
21345,1020,784
21350,1029,785
21355,1060,780
21360,1058,773
21365,1064,779
21370,1076,776
21375,1086,773
21380,1088,772
21385,1106,768
21390,1122,769
21395,1120,764
21400,1137,764
21405,1141,760
21410,1157,760
21415,1160,757
21420,1159,756
21425,1161,757
21430,1161,754
21435,1170,753
21440,1183,750
21445,1184,748
21450,1174,753
21455,1181,754
21460,1188,748
21465,1182,750
21470,1184,751
21475,1187,746
21480,1181,747
21485,1181,746
21490,1182,748
21495,1192,752
21500,1180,752
21505,1184,750
21510,1173,750
21515,1173,750
21520,1166,753
21525,1167,760
21530,1169,754
21535,1163,751
21540,1169,760
21545,1154,760
21550,1143,764
21555,1148,766
21560,1135,771
21565,1143,771
21570,1131,773
21575,1132,775
21580,1125,775
21585,1120,779
21590,1122,782
21595,1111,788
21600,1114,793
21605,1106,788
21610,1103,795
21615,1104,800
21620,1102,799
21625,1108,806
21630,1107,807
21635,1099,811
21640,1093,810
21645,1091,812
21650,1091,821
21655,1096,822
21660,1090,825
21665,1086,825
21670,1080,820
21675,1085,826
21680,1080,828
21685,1072,830
21690,1069,829
21695,1066,835
21700,1062,832
21705,1054,833
21710,1060,834
21715,1055,833
21720,1043,840
21725,1037,836
21730,1030,839
21735,1030,839
21740,1033,835
21745,1018,836
21750,1001,835
21755,1002,838
21760,1005,839
21765,991,839
21770,974,832
21775,975,834
21780,966,836
21785,954,839
21790,944,831
21795,944,838
21800,929,839
21805,914,833
21810,899,838
21815,907,831
21820,892,833
21825,878,828
21830,876,832
21835,862,827
21840,848,829
21845,835,825
21850,835,826
21855,828,828
21860,820,823
21865,816,827
21870,798,829
21875,795,823
21880,781,820
21885,778,822
21890,778,826
21895,760,817
21900,760,817
21905,750,819
21910,753,818
21915,758,817
21920,755,817
21925,753,823
21930,753,815
21935,743,821
21940,752,815
21945,754,818
21950,748,815
21955,757,817
21960,765,812
21965,760,810
21970,776,812
21975,772,818
21980,785,810
21985,799,810
21990,801,812
21995,806,817
22000,813,810
22005,824,811
22010,836,808
22015,848,803
22020,866,801
22025,868,808
22030,888,803
22035,895,802
22040,904,798
22045,922,799
22050,935,794
22055,954,795
22060,971,795
22065,979,793
22070,984,790
22075,1000,789
22080,1019,784
22085,1033,783
22090,1039,784
22095,1056,781
22100,1067,771
22105,1072,773
22110,1090,770
22115,1091,771
22120,1111,767
22125,1118,771
22130,1128,767
22135,1126,758
22140,1135,761
22145,1142,764
22150,1144,763
22155,1156,750
22160,1165,757
22165,1180,757
22170,1172,758
22175,1178,753
22180,1188,753
22185,1181,745
22190,1179,749
22195,1183,746
22200,1184,748
22205,1188,746
22210,1192,747
22215,1185,745
22220,1189,746
22225,1185,746
22230,1191,751
22235,1164,749
22240,1180,754
22245,1176,745
22250,1175,752
22255,1169,757
22260,1169,754
22265,1158,762
22270,1167,762
22275,1156,759
22280,1156,759
22285,1151,760
22290,1152,765
22295,1138,771
22300,1132,769
22305,1139,777
22310,1130,771
22315,1133,779
22320,1136,784
22325,1110,786
22330,1122,790
22335,1124,791
22340,1110,795
22345,1109,801
22350,1112,800
22355,1095,800
22360,1107,801
22365,1109,802
22370,1095,803
22375,1091,809
22380,1092,809
22385,1083,816
22390,1096,818
22395,1092,826
22400,1080,822
22405,1078,821
22410,1074,826
22415,1078,822
22420,1067,821
22425,1077,836
22430,1066,831
22435,1061,831
22440,1062,832
22445,1054,833
22450,1050,833
22455,1051,830
22460,1044,839
22465,1020,840
22470,1029,836
22475,1017,839
22480,1010,844
22485,1013,841
22490,1006,841
22495,1001,834
22500,1001,843
22505,984,841
22510,975,842
22515,961,843
22520,955,843
22525,947,836
22530,946,837
22535,939,835
22540,926,835
22545,903,833
22550,908,833
22555,888,835
22560,888,829
22565,869,832
22570,865,829
22575,859,831
22580,846,826
22585,840,831
22590,822,823
22595,815,822
22600,804,828
22605,812,826
22610,803,824
22615,792,827
22620,784,822
22625,771,824
22630,772,825
22635,765,822
22640,757,815
22645,753,820
22650,748,816
22655,747,820
22660,749,818
22665,748,816
22670,745,815
22675,749,819
22680,759,819
22685,752,812
22690,760,814
22695,764,809
22700,758,816
22705,770,808
22710,779,810
22715,771,807
22720,792,813
22725,796,811
22730,807,814
22735,814,802
22740,825,809
22745,832,807
22750,845,803
22755,856,800
22760,865,797
22765,885,802
22770,895,804
22775,907,799
22780,914,797
22785,937,800
22790,948,795
22795,964,792
22800,973,797
22805,985,791
22810,1006,790
22815,1018,780
22820,1025,782
22825,1038,783
22830,1044,782
22835,1062,775
22840,1076,777
22845,1083,776
22850,1085,776
22855,1101,770
22860,1119,772
22865,1119,764
22870,1134,764
22875,1140,764
22880,1145,763
22885,1151,756
22890,1158,755
22895,1158,757
22900,1170,759
22905,1170,757
22910,1168,746
22915,1178,746
22920,1172,747
22925,1182,748
22930,1192,754
22935,1196,746
22940,1183,747
22945,1189,745
22950,1181,745
22955,1186,747
22960,1181,742
22965,1186,746
22970,1180,751
22975,1185,750
22980,1175,749
22985,1179,754
22990,1174,753
22995,1170,753
23000,1166,755
23005,1161,760
23010,1142,759
23015,1152,754
23020,1140,762
23025,1139,768
23030,1144,764
23035,1141,768
23040,1139,764
23045,1132,771
23050,1121,779
23055,1116,783
23060,1118,779
23065,1125,784
23070,1118,786
23075,1113,790
23080,1107,796
23085,1115,796
23090,1101,805
23095,1095,807
23100,1107,799
23105,1100,803
23110,1098,809
23115,1099,814
23120,1088,814
23125,1093,814
23130,1087,819
23135,1079,827
23140,1075,826
23145,1084,821
23150,1083,822
23155,1073,828
23160,1071,831
23165,1069,830
23170,1062,835
23175,1063,835
23180,1046,831
23185,1047,838
23190,1041,838
23195,1041,836
23200,1044,829
23205,1033,839
23210,1031,838
23215,1019,838
23220,1023,840
23225,1008,839
23230,1010,844
23235,993,838
23240,990,841
23245,977,839
23250,966,837
23255,970,836
23260,948,839
23265,942,838
23270,937,836
23275,918,833
23280,916,826
23285,907,836
23290,895,837
23295,880,830
23300,875,829
23305,868,836
23310,862,832
23315,845,827
23320,849,823
23325,829,828
23330,826,828
23335,810,831
23340,795,825
23345,802,826
23350,787,819
23355,787,825
23360,779,819
23365,772,821
23370,762,823
23375,760,822
23380,759,819
23385,758,818
23390,745,820
23395,754,822
23400,747,820
23405,737,811
23410,742,814
23415,745,817
23420,757,815
23425,750,821
23430,762,815
23435,764,820
23440,775,815
23445,760,813
23450,776,813
23455,793,811
23460,803,810
23465,807,816
23470,816,811
23475,815,812
23480,839,810
23485,843,809
23490,861,805
23495,870,802
23500,876,803
23505,892,794
23510,895,801
23515,917,796
23520,932,802
23525,944,793
23530,960,789
23535,965,790
23540,985,795
23545,996,787
23550,1013,785
23555,1017,784
23560,1041,779
23565,1047,783
23570,1055,773
23575,1066,774
23580,1084,773
23585,1085,778
23590,1094,771
23595,1113,767
23600,1124,768
23605,1132,766
23610,1140,763
23615,1143,758
23620,1152,759
23625,1162,759
23630,1157,762
23635,1171,754
23640,1172,757
23645,1178,751
23650,1175,751
23655,1189,750
23660,1192,748
23665,1196,749
23670,1191,744
23675,1180,749
23680,1187,749
23685,1181,752
23690,1188,748
23695,1192,749
23700,1187,752
23705,1192,753
23710,1186,752
23715,1181,750
23720,1180,751
23725,1176,746
23730,1165,755
23735,1163,756
23740,1159,757
23745,1153,758
23750,1156,766
23755,1155,758
23760,1143,771
23765,1149,770
23770,1140,767
23775,1138,770
23780,1131,771
23785,1129,784
23790,1133,778
23795,1128,784
23800,1120,782
23805,1126,787
23810,1116,791
23815,1115,796
23820,1101,797
23825,1110,796
23830,1104,804
23835,1100,800
23840,1101,806
23845,1103,807
23850,1101,811
23855,1087,820
23860,1084,816
23865,1092,816
23870,1081,820
23875,1091,821
23880,1082,824
23885,1075,826
23890,1073,824
23895,1061,828
23900,1061,837
23905,1059,832
23910,1064,831
23915,1056,831
23920,1060,839
23925,1056,835
23930,1042,838
23935,1044,838
23940,1032,840
23945,1029,841
23950,1023,835
23955,1009,837
23960,1011,841
23965,1010,837
23970,999,844
23975,987,833
23980,984,838
23985,968,838
23990,967,829
23995,962,837
24000,954,835
24005,933,834
24010,921,838
24015,918,836
24020,909,834
24025,904,829
24030,897,836
24035,872,830
24040,873,835
24045,856,832
24050,854,828
24055,841,832
24060,837,823
24065,815,826
24070,810,825
24075,801,821
24080,799,828
24085,788,826
24090,787,830
24095,779,825
24100,767,822
24105,770,819
24110,762,821
24115,755,822
24120,748,819
24125,752,812
24130,746,821
24135,750,823
24140,748,819
24145,752,815
24150,736,817
24155,757,814
24160,753,820
24165,771,812
24170,755,811
24175,769,820
24180,776,809
24185,783,806
24190,782,815
24195,785,810
24200,794,804
24205,810,814
24210,823,811
24215,829,805
24220,842,807
24225,849,807
24230,860,803
24235,871,802
24240,896,808
24245,898,798
24250,912,795
24255,931,791
24260,944,794
24265,957,795
24270,970,791
24275,974,785
24280,991,786
24285,1009,787
24290,1009,781
24295,1031,777
24300,1036,781
24305,1041,775
24310,1066,776
24315,1082,775
24320,1083,770
24325,1104,769
24330,1104,769
24335,1114,767
24340,1137,764
24345,1137,767
24350,1144,759
24355,1141,758
24360,1157,757
24365,1164,757
24370,1156,751
24375,1175,753
24380,1175,756
24385,1170,751
24390,1182,744
24395,1185,749
24400,1191,751
24405,1190,745
24410,1187,753
24415,1180,751
24420,1186,748
24425,1185,747
24430,1193,746
24435,1186,746
24440,1177,753
24445,1176,749
24450,1182,743
24455,1182,751
24460,1173,753
24465,1175,754
24470,1172,751
24475,1166,759
24480,1162,760
24485,1157,759
24490,1150,765
24495,1146,764
24500,1145,764
24505,1155,773
24510,1147,771
24515,1132,770
24520,1124,782
24525,1126,780
24530,1121,781
24535,1125,782
24540,1117,787
24545,1116,787
24550,1116,791
24555,1126,790
24560,1110,797
24565,1109,799
24570,1103,808
24575,1102,806
24580,1089,809
24585,1097,809
24590,1093,813
24595,1088,817
24600,1087,820
24605,1086,817
24610,1079,824
24615,1086,822
24620,1081,823
24625,1078,824
24630,1065,828
24635,1078,832
24640,1068,828
24645,1057,840
24650,1058,837
24655,1051,833
24660,1050,835
24665,1044,831
24670,1043,838
24675,1035,836
24680,1027,840
24685,1026,841
24690,1029,836
24695,1008,843
24700,1006,841
24705,998,834
24710,981,837
24715,977,836
24720,976,834
24725,965,832
24730,960,836
24735,949,836
24740,941,839
24745,929,837
24750,920,840
24755,918,831
24760,898,830
24765,892,835
24770,880,831
24775,873,830
24780,868,831
24785,848,832
24790,841,835
24795,836,832
24800,826,835
24805,818,831
24810,806,826
24815,807,823
24820,796,825
24825,793,824
24830,781,816
24835,776,828
24840,766,819
24845,765,823
24850,761,823
24855,754,821
24860,750,821
24865,747,817
24870,750,822
24875,756,810
24880,748,820
24885,747,821
24890,756,817
24895,747,818
24900,755,815
24905,764,810
24910,766,817
24915,775,809
24920,778,812
24925,780,807
24930,795,817
24935,802,809
24940,808,808
24945,815,807
24950,826,807
24955,841,804
24960,853,804
24965,867,803
24970,872,802
24975,887,803
24980,899,799
24985,911,801
24990,920,797
24995,928,794
25000,954,792
25005,956,790
25010,975,790
25015,987,792
25020,1002,784
25025,1015,784
25030,1022,783
25035,1040,779
25040,1055,775
25045,1060,777
25050,1082,778
25055,1077,773
25060,1093,773
25065,1112,769
25070,1116,774
25075,1130,761
25080,1135,761
25085,1143,759
25090,1138,755
25095,1146,758
25100,1154,757
25105,1160,755
25110,1173,758
25115,1162,750
25120,1182,751
25125,1176,748
25130,1182,755
25135,1188,746
25140,1187,748
25145,1182,751
25150,1193,745
25155,1186,749
25160,1182,756
25165,1183,753
25170,1193,748
25175,1180,744
25180,1177,744
25185,1171,754
25190,1183,747
25195,1169,754
25200,1170,756
25205,1152,758
25210,1157,749
25215,1159,755
25220,1149,760
25225,1149,768
25230,1149,762
25235,1148,766
25240,1144,766
25245,1139,765
25250,1137,776
25255,1130,775
25260,1131,775
25265,1129,782
25270,1112,784
25275,1119,782
25280,1111,793
25285,1106,798
25290,1109,795
25295,1109,798
25300,1100,802
25305,1100,800
25310,1098,803
25315,1097,807
25320,1103,810
25325,1086,812
25330,1087,815
25335,1088,817
25340,1084,817
25345,1081,826
25350,1085,823
25355,1079,825
25360,1069,830
25365,1071,832
25370,1076,832
25375,1071,833
25380,1054,832
25385,1066,831
25390,1054,837
25395,1060,839
25400,1049,837
25405,1051,836
25410,1034,843
25415,1028,835
25420,1016,836
25425,1021,838
25430,1010,837
25435,1008,837
25440,995,839
25445,982,838
25450,984,838
25455,980,840
25460,963,831
25465,963,834
25470,950,840
25475,939,837
25480,934,831
25485,922,829
25490,911,830
25495,905,828
25500,889,827
25505,887,832
25510,880,829
25515,866,825
25520,860,825
25525,836,834
25530,837,831
25535,828,826
25540,818,828
25545,819,825
25550,805,825
25555,805,825
25560,786,824
25565,782,824
25570,776,823
25575,778,823
25580,760,822
25585,762,821
25590,753,815
25595,747,819
25600,746,820
25605,756,824
25610,747,819
25615,742,813
25620,741,818
25625,749,814
25630,756,819
25635,764,810
25640,757,817
25645,757,818
25650,770,812
25655,762,809
25660,784,811
25665,785,814
25670,804,819
25675,812,814
25680,811,811
25685,829,811
25690,837,808
25695,839,804
25700,855,807
25705,873,805
25710,870,804
25715,892,804
25720,915,798
25725,921,796
25730,930,799
25735,952,796
25740,958,793
25745,975,787
25750,991,790
25755,997,789
25760,1006,788
25765,1022,784
25770,1033,778
25775,1050,777
25780,1060,781
25785,1074,777
25790,1084,777
25795,1095,775
25800,1107,765
25805,1113,766
25810,1123,766
25815,1122,761
25820,1139,765
25825,1141,758
25830,1152,759
25835,1162,757
25840,1156,754
25845,1161,753
25850,1175,752
25855,1178,751
25860,1177,752
25865,1183,752
25870,1189,752
25875,1185,745
25880,1180,744
25885,1188,745
25890,1192,744
25895,1187,750
25900,1179,749
25905,1184,745
25910,1185,744
25915,1192,751
25920,1176,746
25925,1174,751
25930,1180,747
25935,1176,755
25940,1169,752
25945,1161,754
25950,1172,753
25955,1159,762
25960,1151,767
25965,1144,766
25970,1145,766
25975,1142,763
25980,1145,766
25985,1133,776
25990,1136,775
25995,1144,780
26000,1138,783
26005,1124,782
26010,1120,786
26015,1119,789
26020,1104,787
26025,1109,794
26030,1104,795
26035,1104,799
26040,1099,800
26045,1097,805
26050,1094,811
26055,1100,809
26060,1092,812
26065,1098,808
26070,1085,817
26075,1097,822
26080,1083,813
26085,1079,821
26090,1075,828
26095,1078,825
26100,1077,823
26105,1078,829
26110,1070,829
26115,1067,831
26120,1061,832
26125,1056,829
26130,1056,838
26135,1045,837
26140,1046,840
26145,1052,840
26150,1037,839
26155,1027,831
26160,1020,841
26165,1006,837
26170,1016,839
26175,997,836
26180,1001,835
26185,988,844
26190,982,832
26195,971,835
26200,962,842
26205,956,837
26210,940,829
26215,937,832
26220,918,837
26225,917,835
26230,905,837
26235,891,835
26240,883,830
26245,875,833
26250,859,831
26255,853,834
26260,847,835
26265,835,830
26270,823,829
26275,817,826
26280,808,823
26285,799,821
26290,796,828
26295,781,823
26300,780,827
26305,779,820
26310,768,824
26315,757,825
26320,759,822
26325,757,820
26330,757,818
26335,755,814
26340,756,819
26345,757,818
26350,745,812
26355,752,815
26360,753,813
26365,751,820
26370,755,817
26375,753,811
26380,770,815
26385,766,817
26390,771,816
26395,778,813
26400,786,817
26405,791,807
26410,800,812
26415,816,809
26420,826,813
26425,826,805
26430,843,805
26435,847,800
26440,870,804
26445,882,801
26450,888,805
26455,904,802
26460,911,800
26465,925,799
26470,946,801
26475,954,791
26480,962,789
26485,982,789
26490,991,790
26495,1002,784
26500,1012,781
26505,1032,784
26510,1050,785
26515,1052,784
26520,1074,777
26525,1065,773
26530,1094,773
26535,1103,770
26540,1112,773
26545,1116,771
26550,1130,763
26555,1144,761
26560,1139,755
26565,1146,764
26570,1163,757
26575,1155,755
26580,1167,756
26585,1168,754
26590,1178,751
26595,1180,754
26600,1181,750
26605,1182,748
26610,1187,749
26615,1188,749
26620,1189,747
26625,1188,747
26630,1190,748
26635,1191,750
26640,1180,751
26645,1179,749
26650,1182,747
26655,1189,751
26660,1180,752
26665,1180,753
26670,1176,753
26675,1169,757
26680,1175,756
26685,1168,755
26690,1166,760
26695,1153,761
26700,1150,763
26705,1158,768
26710,1146,763
26715,1137,773
26720,1126,773
26725,1136,779
26730,1134,777
26735,1123,782
26740,1120,783
26745,1125,780
26750,1125,793
26755,1115,793
26760,1118,793
26765,1108,796
26770,1111,802
26775,1102,801
26780,1110,802
26785,1104,804
26790,1102,809
26795,1095,812
26800,1098,821
26805,1090,812
26810,1097,813
26815,1089,817
26820,1077,819
26825,1077,829
26830,1080,825
26835,1074,833
26840,1059,825
26845,1072,830
26850,1068,831
26855,1050,833
26860,1062,836
26865,1058,838
26870,1044,832
26875,1040,834
26880,1041,836
26885,1035,841
26890,1032,835
26895,1024,842
26900,1032,844
26905,1020,840
26910,999,838
26915,990,842
26920,993,839
26925,977,837
26930,966,835
26935,971,834
26940,953,832
26945,960,837
26950,942,839
26955,930,835
26960,919,833
26965,918,834
26970,894,836
26975,893,827
26980,877,832
26985,865,830
26990,859,830
26995,844,833
27000,835,829
27005,832,825
27010,828,829
27015,814,824
27020,815,818
27025,795,825
27030,794,825
27035,781,826
27040,778,826
27045,765,821
27050,765,818
27055,758,820
27060,767,820
27065,756,818
27070,755,819
27075,758,827
27080,752,819
27085,747,815
27090,747,821
27095,757,816
27100,752,824
27105,756,815
27110,754,815
27115,762,819
27120,771,812
27125,768,812
27130,781,808
27135,784,815
27140,795,815
27145,809,811
27150,814,815
27155,821,814
27160,834,810
27165,830,814
27170,853,809
27175,858,801
27180,879,807
27185,887,803
27190,899,797
27195,906,800
27200,934,798
27205,938,793
27210,959,794
27215,959,795
27220,975,794
27225,991,791
27230,1006,786
27235,1015,778
27240,1034,785
27245,1048,782
27250,1064,781
27255,1065,777
27260,1080,780
27265,1089,771
27270,1093,769
27275,1116,773
27280,1118,767
27285,1125,762
27290,1126,763
27295,1135,765
27300,1147,761
27305,1147,763
27310,1160,754
27315,1169,764
27320,1168,760
27325,1176,749
27330,1180,753
27335,1179,752
27340,1186,750
27345,1186,750
27350,1190,753
27355,1183,747
27360,1180,748
27365,1194,751
27370,1185,746
27375,1189,748
27380,1193,745
27385,1183,743
27390,1183,752
27395,1180,751
27400,1184,750
27405,1182,753
27410,1162,754
27415,1167,757
27420,1160,755
27425,1153,757
27430,1153,759
27435,1150,759
27440,1146,770
27445,1143,765
27450,1135,763
27455,1144,770
27460,1133,771
27465,1129,779
27470,1126,779
27475,1127,782
27480,1126,788
27485,1117,784
27490,1115,793
27495,1117,794
27500,1115,793
27505,1112,793
27510,1098,798
27515,1101,798
27520,1107,801
27525,1096,810
27530,1100,808
27535,1092,811
27540,1100,816
27545,1087,820
27550,1089,818
27555,1088,825
27560,1080,825
27565,1081,825
27570,1074,829
27575,1077,833
27580,1071,828
27585,1079,831
27590,1060,832
27595,1062,835
27600,1057,838
27605,1050,836
27610,1040,836
27615,1042,839
27620,1040,838
27625,1027,834
27630,1023,837
27635,1018,838
27640,1014,840
27645,1000,837
27650,1001,837
27655,988,841
27660,983,836
27665,974,839
27670,969,840
27675,962,836
27680,948,834
27685,939,832
27690,918,837
27695,932,838
27700,908,835
27705,894,830
27710,894,825
27715,891,835
27720,865,833
27725,867,831
27730,846,828
27735,848,829
27740,843,830
27745,813,822
27750,820,825
27755,802,826
27760,790,821
27765,797,826
27770,781,822
27775,779,823
27780,774,819
27785,761,824
27790,769,821
27795,755,820
27800,752,817
27805,748,824
27810,751,818
27815,747,822
27820,749,818
27825,751,817
27830,745,820
27835,751,818
27840,753,814
27845,758,814
27850,760,820
27855,761,816
27860,768,810
27865,767,812
27870,784,811
27875,789,807
27880,794,813
27885,813,812
27890,817,807
27895,822,807
27900,833,805
27905,856,805
27910,857,804
27915,876,802
27920,887,801
27925,898,802
27930,909,798
27935,920,799
27940,937,800
27945,962,794
27950,968,797
27955,971,789
27960,984,787
27965,997,788
27970,1006,782
27975,1020,779
27980,1035,785
27985,1051,781
27990,1072,777
27995,1072,771
28000,1084,773
28005,1098,770
28010,1113,769
28015,1113,769
28020,1115,765
28025,1127,763
28030,1138,763
28035,1143,761
28040,1154,761
28045,1159,754
28050,1162,756
28055,1168,753
28060,1178,748
28065,1181,750
28070,1192,752
28075,1188,748
28080,1185,744
28085,1188,751
28090,1188,750
28095,1187,746
28100,1182,747
28105,1182,751
28110,1181,743
28115,1177,745
28120,1184,744
28125,1181,747
28130,1179,745
28135,1178,750
28140,1169,750
28145,1163,755
28150,1176,756
28155,1165,757
28160,1157,758
28165,1161,761
28170,1148,761
28175,1143,765
28180,1146,765
28185,1142,762
28190,1141,774
28195,1134,771
28200,1141,779
28205,1136,780
28210,1127,781
28215,1125,784
28220,1124,786
28225,1118,787
28230,1112,789
28235,1119,791
28240,1109,798
28245,1109,801
28250,1095,802
28255,1098,803
28260,1098,808
28265,1094,810
28270,1086,818
28275,1098,814
28280,1083,815
28285,1090,817
28290,1081,819
28295,1079,819
28300,1082,824
28305,1074,822
28310,1074,828
28315,1077,828
28320,1069,833
28325,1071,834
28330,1068,832
28335,1053,834
28340,1048,831
28345,1046,839
28350,1039,832
28355,1036,834
28360,1038,841
28365,1031,838
28370,1022,839
28375,1011,839
28380,1007,838
28385,1003,840
28390,987,841
28395,987,838
28400,976,839
28405,969,840
28410,965,838
28415,947,837
28420,936,831
28425,937,836
28430,918,832
28435,920,835
28440,901,832
28445,887,828
28450,885,832
28455,875,834
28460,863,831
28465,860,828
28470,840,825
28475,845,828
28480,829,827
28485,828,828
28490,810,822
28495,795,826
28500,799,822
28505,789,822
28510,782,820
28515,770,826
28520,768,824
28525,762,822
28530,750,824
28535,763,824
28540,747,819
28545,747,820
28550,756,814
28555,741,818
28560,745,821
28565,748,817
28570,748,815
28575,747,820
28580,751,814
28585,759,813
28590,763,820
28595,766,820
28600,776,820
28605,786,812
28610,790,817
28615,805,813
28620,800,806
28625,813,809
28630,821,803
28635,831,808
28640,849,806
28645,859,804
28650,866,805
28655,883,803
28660,895,801
28665,907,802
28670,916,797
28675,930,795
28680,937,797
28685,964,796
28690,972,797
28695,990,789
28700,1000,790
28705,1008,784
28710,1026,784
28715,1023,782
28720,1057,774
28725,1062,775
28730,1073,778
28735,1078,772
28740,1084,770
28745,1092,770
28750,1112,769
28755,1122,765
28760,1133,764
28765,1134,761
28770,1144,761
28775,1148,761
28780,1155,756
28785,1166,755
28790,1172,757
28795,1166,751
28800,1169,749
28805,1176,755
28810,1188,752
28815,1193,744
28820,1185,750
28825,1186,746
28830,1195,747
28835,1185,747
28840,1177,745
28845,1187,748
28850,1190,747
28855,1183,751
28860,1180,750
28865,1185,749
28870,1181,748
28875,1175,748
28880,1176,750
28885,1167,754
28890,1156,755
28895,1155,754
28900,1154,754
28905,1156,760
28910,1147,763
28915,1153,768
28920,1142,769
28925,1138,770
28930,1143,772
28935,1142,779
28940,1131,778
28945,1124,786
28950,1120,784
28955,1121,785
28960,1117,785
28965,1108,790
28970,1110,790
28975,1103,795
28980,1110,800
28985,1103,801
28990,1104,805
28995,1096,810
29000,1093,806
29005,1091,816
29010,1098,820
29015,1086,820
29020,1080,822
29025,1086,820
29030,1089,822
29035,1081,824
29040,1073,829
29045,1075,829
29050,1070,832
29055,1056,826
29060,1068,830
29065,1061,836
29070,1062,839
29075,1058,838
29080,1051,833
29085,1049,834
29090,1039,836
29095,1027,834
29100,1028,837
29105,1018,838
29110,1018,837
29115,1009,841
29120,996,836
29125,995,840
29130,989,835
29135,974,841
29140,969,837
29145,960,836
29150,955,838
29155,950,839
29160,940,836
29165,934,837
29170,919,835
29175,912,832
29180,891,837
29185,881,832
29190,878,832
29195,866,832
29200,862,825
29205,853,833
29210,830,828
29215,819,829
29220,827,824
29225,806,830
29230,808,829
29235,801,829
29240,788,824
29245,795,822
29250,772,823
29255,763,824
29260,769,824
29265,762,818
29270,762,824
29275,754,821
29280,758,819
29285,755,818
29290,744,821
29295,747,818
29300,756,818
29305,754,816
29310,753,820
29315,753,825
29320,754,818
29325,759,812
29330,759,810
29335,769,811
29340,774,814
29345,791,812
29350,790,815
29355,812,814
29360,813,812
29365,822,811
29370,824,808
29375,836,804
29380,856,807
29385,861,805
29390,874,808
29395,887,804
29400,898,797
29405,915,798
29410,923,799
29415,949,790
29420,949,796
29425,973,788
29430,984,795
29435,995,783
29440,1017,786
29445,1014,781
29450,1033,784
29455,1047,778
29460,1053,782
29465,1069,783
29470,1086,776
29475,1092,772
29480,1098,769
29485,1115,772
29490,1113,765
29495,1123,765
29500,1137,758
29505,1151,756
29510,1153,759
29515,1152,757
29520,1161,756
29525,1166,756
29530,1176,758
29535,1181,752
29540,1174,747
29545,1185,752
29550,1179,747
29555,1188,749
29560,1193,746
29565,1189,747
29570,1185,748
29575,1185,747
29580,1188,748
29585,1182,747
29590,1187,748
29595,1174,746
29600,1184,749
29605,1177,749
29610,1176,751
29615,1176,746
29620,1166,748
29625,1157,756
29630,1162,755
29635,1157,759
29640,1155,760
29645,1140,764
29650,1145,759
29655,1146,773
29660,1144,765
29665,1139,773
29670,1129,777
29675,1128,780
29680,1127,778
29685,1122,782
29690,1122,779
29695,1120,788
29700,1121,787
29705,1103,790
29710,1111,794
29715,1106,800
29720,1108,802
29725,1100,801
29730,1102,806
29735,1103,809
29740,1098,803
29745,1094,814
29750,1098,813
29755,1088,821
29760,1087,815
29765,1085,825
29770,1075,822
29775,1077,826
29780,1077,824
29785,1071,827
29790,1052,827
29795,1070,825
29800,1068,833
29805,1061,835
29810,1062,838
29815,1058,836
29820,1051,839
29825,1054,831
29830,1038,836
29835,1028,836
29840,1019,842
29845,1019,841
29850,1022,832
29855,1002,837
29860,990,837
29865,978,836
29870,983,839
29875,973,841
29880,953,837
29885,952,834
29890,948,833
29895,944,837
29900,920,834
29905,911,832
29910,913,833
29915,895,833
29920,879,834
29925,881,828
29930,871,836
29935,860,833
29940,846,824
29945,837,830
29950,828,829
29955,823,827
29960,817,826
29965,801,824
29970,797,823
29975,796,823
29980,781,825
29985,776,822
29990,763,825
29995,769,819
30000,770,821
30005,760,816
30010,762,819
30015,752,819
30020,756,819
30025,750,817
30030,742,816
30035,744,817
30040,742,817
30045,746,817
30050,750,818
30055,765,823
30060,762,818
30065,767,816
30070,769,811
30075,784,812
30080,781,814
30085,798,809
30090,792,813
30095,803,810
30100,816,813
30105,823,807
30110,842,809
30115,849,808
30120,858,803
30125,871,804
30130,886,800
30135,900,802
30140,912,799
30145,927,797
30150,949,796
30155,949,798
30160,962,794
30165,979,791
30170,978,787
30175,1003,787
30180,1012,782
30185,1027,786
30190,1038,785
30195,1052,782
30200,1069,775
30205,1073,773
30210,1082,774
30215,1093,769
30220,1112,773
30225,1113,759
30230,1121,768
30235,1135,760
30240,1144,764
30245,1142,759
30250,1152,757
30255,1165,754
30260,1170,757
30265,1167,754
30270,1175,753
30275,1180,746
30280,1182,755
30285,1191,746
30290,1183,749
30295,1191,748
30300,1185,746
30305,1200,747
30310,1190,746
30315,1181,749
30320,1182,748
30325,1191,746
30330,1193,748
30335,1169,747
30340,1182,752
30345,1164,752
30350,1171,751
30355,1178,757
30360,1162,757
30365,1165,754
30370,1154,758
30375,1164,766
30380,1150,757
30385,1151,757
30390,1141,769
30395,1141,766
30400,1137,773
30405,1129,774
30410,1140,776
30415,1128,777
30420,1130,777
30425,1124,785
30430,1122,788
30435,1111,793
30440,1115,789
30445,1117,796
30450,1102,797
30455,1106,803
30460,1107,807
30465,1104,810
30470,1096,809
30475,1100,810
30480,1096,812
30485,1087,813
30490,1083,814
30495,1084,813
30500,1095,828
30505,1081,826
30510,1081,827
30515,1072,828
30520,1070,831
30525,1080,829
30530,1069,826
30535,1071,831
30540,1062,833
30545,1055,839
30550,1044,838
30555,1046,840
30560,1042,836
30565,1036,841
30570,1034,840
30575,1025,836
30580,1018,843
30585,1013,839
30590,1004,840
30595,1000,840
30600,992,835
30605,986,840
30610,976,836
30615,966,840
30620,958,841
30625,944,833
30630,936,839
30635,928,837
30640,919,841
30645,915,831
30650,901,828
30655,896,828
30660,875,836
30665,865,831
30670,863,832
30675,850,832
30680,850,820
30685,834,828
30690,821,826
30695,829,825
30700,813,823
30705,808,827
30710,789,821
30715,782,825
30720,783,822
30725,765,824
30730,771,822
30735,758,819
30740,757,822
30745,754,816
30750,741,822
30755,752,818
30760,744,822
30765,746,818
30770,742,813
30775,746,810
30780,747,818
30785,748,822
30790,761,819
30795,765,816
30800,768,816
30805,767,813
30810,773,815
30815,782,817
30820,785,810
30825,796,813
30830,809,819
30835,816,811
30840,818,811
30845,834,810
30850,852,805
30855,868,804
30860,871,805
30865,883,808
30870,892,801
30875,909,803
30880,915,796
30885,938,797
30890,943,794
30895,958,788
30900,971,789
30905,984,787
30910,997,785
30915,1010,781
30920,1027,784
30925,1047,787
30930,1038,780
30935,1055,774
30940,1075,776
30945,1092,771
30950,1087,766
30955,1105,779
30960,1115,768
30965,1121,770
30970,1119,770
30975,1142,763
30980,1140,755
30985,1150,759
30990,1151,762
30995,1168,759
31000,1173,754
31005,1166,751
31010,1184,749
31015,1184,750
31020,1182,752
31025,1180,752
31030,1194,751
31035,1187,746
31040,1184,748
31045,1186,748
31050,1191,748
31055,1181,749
31060,1175,749
31065,1184,746
31070,1192,753
31075,1178,751
31080,1184,752
31085,1179,752
31090,1173,750
31095,1166,755
31100,1163,758
31105,1174,758
31110,1155,762
31115,1153,761
31120,1153,763
31125,1145,765
31130,1139,768
31135,1137,771
31140,1131,776
31145,1137,775
31150,1125,775
31155,1127,787
31160,1117,785
31165,1127,787
31170,1118,788
31175,1117,793
31180,1107,801
31185,1110,794
31190,1103,798
31195,1106,801
31200,1104,802
31205,1102,810
31210,1089,807
31215,1103,811
31220,1091,820
31225,1083,821
31230,1091,822
31235,1091,819
31240,1076,819
31245,1085,826
31250,1081,826
31255,1075,828
31260,1065,829
31265,1068,829
31270,1062,828
31275,1061,837
31280,1059,835
31285,1060,836
31290,1044,834
31295,1050,838
31300,1039,837
31305,1030,837
31310,1022,839
31315,1022,838
31320,1012,843
31325,1009,838
31330,992,839
31335,987,835
31340,988,845
31345,973,839
31350,964,838
31355,973,844
31360,953,830
31365,939,838
31370,934,836
31375,928,833
31380,917,833
31385,906,832
31390,894,836
31395,884,831
31400,875,833
31405,866,826
31410,863,830
31415,848,831
31420,829,828
31425,824,828
31430,819,823
31435,811,826
31440,806,820
31445,792,822
31450,791,826
31455,780,824
31460,779,825
31465,766,819
31470,769,823
31475,759,813
31480,757,827
31485,754,819
31490,748,813
31495,741,818
31500,743,821
31505,749,818
31510,751,818
31515,751,817
31520,761,818
31525,749,818
31530,763,815
31535,760,817
31540,761,815
31545,772,819
31550,779,817
31555,789,815
31560,792,809
31565,808,815
31570,809,815
31575,822,809
31580,836,805
31585,839,808
31590,857,803
31595,870,807
31600,884,804
31605,881,796
31610,894,798
31615,917,799
31620,928,796
31625,947,794
31630,964,789
31635,962,799
31640,980,790
31645,991,786
31650,1007,786
31655,1028,782
31660,1037,787
31665,1058,780
31670,1053,779
31675,1066,773
31680,1078,773
31685,1090,771
31690,1098,769
31695,1114,770
31700,1121,765
31705,1119,767
31710,1146,764
31715,1146,763
31720,1148,752
31725,1161,756
31730,1165,760
31735,1161,757
31740,1169,750
31745,1177,757
31750,1187,750
31755,1187,749
31760,1176,751
31765,1183,748
31770,1181,748
31775,1187,748
31780,1191,749
31785,1194,749
31790,1188,752
31795,1182,746
31800,1189,746
31805,1178,754
31810,1184,747
31815,1175,750
31820,1177,754
31825,1175,754
31830,1179,757
31835,1152,755
31840,1165,755
31845,1164,758
31850,1158,764
31855,1147,758
31860,1143,768
31865,1140,770
31870,1142,764
31875,1132,774
31880,1129,779
31885,1133,774
31890,1133,778
31895,1124,782
31900,1127,782
31905,1119,783
31910,1113,792
31915,1111,794
31920,1104,798
31925,1101,801
31930,1112,800
31935,1097,808
31940,1097,804
31945,1097,808
31950,1093,814
31955,1099,816
31960,1088,819
31965,1085,815
31970,1085,824
31975,1085,821
31980,1083,826
31985,1080,825
31990,1068,823
31995,1073,829
32000,1069,831
32005,1063,838
32009,1054,828
32015,1059,835
32020,1049,831
32025,1055,835
32030,1047,831
32034,1041,838
32040,1034,838
32045,1025,842
32049,1015,842
32055,1014,832
32060,1003,839
32064,1009,836
32070,986,834
32075,986,836
32080,986,842
32085,975,836
32090,965,834
32095,947,837
32100,950,838
32104,937,838
32110,926,840
32115,917,835
32119,903,834
32125,902,831
32130,884,834
32134,880,829
32140,862,827
32145,863,830
32150,848,830
32155,841,835
32159,831,822
32165,825,825
32170,807,827
32174,801,830
32180,789,825
32185,789,822
32189,789,825
32195,782,823
32200,773,826
32205,763,823
32210,760,816
32215,763,822
32220,759,825
32225,740,818
32229,755,817
32235,745,822
32240,752,816
32244,743,822
32250,749,812
32255,751,813
32259,754,814
32265,763,812
32270,763,815
32275,770,813
32280,761,811
32284,786,817
32290,791,811
32295,796,815
32299,801,811
32305,818,811
32310,836,811
32314,835,804
32320,840,810
32325,845,802
32330,873,809
32335,879,806
32340,884,798
32345,905,797
32350,907,801
32354,930,793
32360,942,794
32365,954,792
32369,972,793
32375,986,797
32380,996,793
32384,1008,789
32390,1013,787
32395,1031,782
32400,1041,784
32405,1057,777
32409,1074,780
32415,1086,775
32420,1083,773
32424,1101,770
32430,1113,773
32435,1109,761
32439,1130,767
32445,1137,763
32450,1138,763
32455,1142,760
32460,1154,757
32465,1157,756
32470,1162,753
32475,1170,753
32479,1176,753
32485,1177,748
32490,1176,748
32494,1179,750
32500,1184,748
32505,1186,750
32509,1194,753
32515,1186,750
32520,1188,748
32525,1193,750
32530,1187,749
32534,1176,746
32540,1186,750
32545,1184,751
32549,1183,747
32555,1168,750
32560,1182,755
32564,1177,752
32570,1163,760
32575,1157,758
32580,1156,755
32585,1152,760
32590,1141,765
32595,1136,762
32600,1143,770
32604,1139,767
32610,1137,770
32615,1136,771
32619,1134,774
32625,1123,778
32630,1119,779
32634,1119,782
32640,1113,789
32645,1112,789
32650,1111,790
32655,1106,795
32659,1111,800
32665,1108,805
32670,1105,803
32674,1098,806
32680,1097,812
32685,1100,806
32689,1089,817
32695,1092,807
32700,1090,819
32705,1088,816
32710,1084,828
32715,1084,825
32720,1088,823
32725,1077,826
32729,1065,829
32735,1072,836
32740,1065,835
32744,1060,833
32750,1067,830
32755,1051,836
32759,1048,835
32765,1041,837
32770,1039,841
32775,1039,839
32780,1025,839
32785,1015,841
32790,1017,839
32795,1007,837
32800,1001,837
32805,993,838
32810,987,843
32815,999,835
32820,970,842
32825,962,842
32830,967,837
32835,952,833
32840,938,837
32845,929,836
32850,929,835
32855,908,832
32860,896,828
32865,888,834
32870,875,830
32875,872,829
32880,859,824
32885,844,827
32890,853,825
32895,833,827
32900,821,828
32905,820,828
32910,812,828
32915,792,821
32920,796,824
32925,784,826
32930,778,827
32935,772,818
32940,774,819
32945,755,821
32950,763,818
32955,752,820
32960,747,826
32965,756,818
32970,754,816
32975,751,818
32980,746,812
32985,741,820
32990,749,822
32995,757,817
33000,754,816
33005,761,811
33010,765,816
33015,768,811
33020,774,816
33025,775,811
33030,796,809
33035,797,815
33040,810,811
33045,823,810
33050,837,803
33055,850,811
33060,864,807
33065,861,803
33070,865,802
33075,884,803
33080,900,796
33085,907,802
33090,919,799
33095,929,795
33100,950,792
33105,965,792
33110,980,787
33115,990,788
33120,1006,788
33125,1013,790
33130,1034,782
33135,1038,785
33140,1058,776
33145,1068,778
33150,1065,776
33155,1080,768
33160,1097,772
33165,1103,769
33170,1116,765
33175,1116,769
33180,1135,764
33185,1146,762
33190,1145,761
33195,1148,756
33200,1162,761
33205,1170,755
33210,1167,755
33215,1181,749
33220,1180,753
33225,1184,751
33230,1186,753
33235,1183,747
33240,1190,751
33245,1182,751
33250,1189,745
33255,1187,746
33260,1181,742
33265,1183,740
33270,1193,744
33275,1185,750
33280,1178,751
33285,1176,752
33290,1172,749
33295,1164,747
33300,1175,753
33305,1165,755
33310,1157,753
33315,1159,755
33320,1157,756
33325,1155,760
33330,1153,761
33335,1145,767
33340,1151,770
33345,1140,769
33350,1137,771
33355,1127,776
33360,1125,778
33365,1129,781
33370,1114,785
33375,1131,788
33380,1105,787
33385,1118,794
33390,1109,798
33395,1104,793
33400,1114,804
33405,1100,802
33410,1103,803
33415,1098,812
33420,1094,808
33425,1089,818
33430,1096,813
33435,1087,819
33440,1089,820
33445,1080,819
33450,1088,827
33455,1078,824
33460,1075,824
33465,1077,838
33470,1070,830
33475,1068,830
33480,1060,832
33485,1059,836
33490,1062,839
33495,1047,835
33500,1048,837
33505,1040,835
33510,1042,837
33515,1031,831
33520,1033,840
33525,1009,836
33530,1011,840
33535,1010,836
33540,995,839
33545,994,837
33550,987,840
33555,976,837
33560,969,832
33565,958,837
33570,949,836
33575,939,831
33580,937,832
33585,919,839
33590,906,836
33595,909,830
33600,886,831
33605,884,836
33610,878,829
33615,850,828
33620,859,830
33625,837,830
33630,843,826
33635,831,828
33640,814,828
33645,809,832
33650,804,819
33655,788,820
33660,787,823
33665,776,822
33670,775,824
33675,769,822
33680,764,822
33685,755,817
33690,761,822
33695,755,824
33700,748,817
33705,752,821
33710,746,818
33715,750,813
33720,753,818
33725,753,817
33730,765,818
33735,755,818
33740,762,815
33745,754,811
33750,769,816
33755,776,809
33760,782,811
33765,791,808
33770,793,812
33775,800,811
33780,806,811
33785,821,807
33790,827,810
33795,842,805
33800,860,803
33805,863,803
33810,877,803
33815,902,802
33820,904,804
33825,921,796
33830,934,797
33835,938,803
33840,953,790
33845,968,783
33850,977,797
33855,995,784
33860,1016,782
33865,1021,786
33870,1030,785
33875,1053,779
33880,1058,776
33885,1074,779
33890,1081,776
33895,1099,770
33900,1102,767
33905,1116,767
33910,1117,769
33915,1137,771
33920,1135,759
33925,1147,758
33930,1156,761
33935,1160,756
33940,1165,752
33945,1170,753
33950,1171,756
33955,1166,752
33960,1176,752
33965,1188,747
33970,1179,743
33975,1188,746
33980,1191,750
33985,1179,743
33990,1191,743
33995,1185,750
34000,1179,751
34005,1180,750
34010,1192,752
34015,1183,751
34020,1181,749
34025,1172,750
34030,1175,752
34035,1168,753
34040,1165,751
34045,1171,754
34050,1161,752
34055,1150,757
34060,1159,760
34065,1150,765
34070,1153,767
34075,1140,768
34080,1148,770
34085,1138,774
34090,1133,781
34095,1132,773
34100,1128,779
34105,1120,780
34110,1117,785
34115,1111,792
34120,1114,793
34125,1109,796
34130,1119,799
34135,1108,799
34140,1113,800
34145,1093,804
34150,1110,809
34155,1098,809
34160,1090,809
34165,1095,818
34170,1083,821
34175,1090,818
34180,1079,815
34185,1083,823
34190,1076,828
34195,1077,822
34200,1076,835
34205,1072,830
34210,1065,827
34215,1069,833
34220,1059,833
34225,1046,831
34230,1057,839
34235,1051,836
34240,1034,842
34245,1037,837
34250,1024,840
34255,1026,836
34260,1014,838
34265,1016,835
34270,998,841
34275,993,840
34280,985,841
34285,983,834
34290,971,841
34295,971,840
34300,950,839
34305,954,838
34310,943,833
34315,935,833
34320,925,835
34325,917,833
34330,897,833
34335,891,836
34340,886,829
34345,874,830
34350,866,834
34355,869,830
34360,846,830
34365,845,825
34370,829,828
34375,819,830
34380,815,826
34385,803,827
34390,798,827
34395,788,821
34400,788,819
34405,783,822
34410,776,821
34415,764,823
34420,762,821
34425,753,821
34430,761,821
34435,748,817
34440,745,819
34445,754,816
34450,753,818
34455,749,816
34460,740,814
34465,751,824
34470,759,816
34475,755,816
34480,766,819
34485,770,816
34490,767,810
34495,771,816
34500,790,816
34505,801,809
34510,799,808
34515,804,808
34520,817,808
34525,834,812
34530,842,809
34535,852,807
34540,870,810
34545,873,800
34550,900,804
34555,907,805
34560,915,798
34565,931,796
34570,944,789
34575,953,789
34580,976,792
34585,979,789
34590,990,783
34595,1008,783
34600,1025,788
34605,1032,779
34610,1041,781
34615,1053,780
34620,1073,783
34625,1075,777
34630,1097,771
34635,1099,767
34640,1109,771
34645,1116,772
34650,1127,761
34655,1134,759
34660,1134,758
34665,1152,760
34670,1167,759
34675,1160,756
34680,1172,750
34685,1167,755
34690,1172,755
34695,1164,748
34700,1187,758
34705,1184,748
34710,1184,750
34715,1182,745
34720,1184,744
34725,1189,754
34730,1182,750
34735,1180,748
34740,1188,752
34745,1184,746
34750,1172,745
34755,1175,749
34760,1178,748
34765,1176,753
34770,1160,750
34775,1169,752
34780,1164,752
34785,1167,757
34790,1162,762
34795,1156,761
34800,1158,763
34805,1141,765
34810,1136,768
34815,1143,769
34820,1134,774
34825,1135,779
34830,1119,779
34835,1131,778
34840,1117,783
34845,1127,782
34850,1121,786
34855,1113,797
34860,1102,793
34865,1106,795
34870,1103,802
34875,1111,801
34880,1103,800
34885,1097,805
34890,1096,810
34895,1094,810
34900,1089,815
34905,1095,818
34910,1100,816
34915,1074,821
34920,1081,826
34925,1077,825
34930,1078,828
34935,1073,831
34940,1079,831
34945,1070,829
34950,1075,831
34955,1074,837
34960,1058,836
34965,1054,836
34970,1051,837
34975,1044,837
34980,1046,838
34985,1031,835
34990,1034,842
34995,1019,839
35000,1016,838
35005,1007,835
35010,1009,837
35015,1001,840
35020,981,838
35025,992,839
35030,977,845
35035,963,837
35040,954,837
35045,938,837
35050,942,832
35055,929,841
35060,913,839
35065,910,830
35070,897,835
35075,891,830
35080,889,830
35085,869,835
35090,860,833
35095,848,826
35100,837,826
35105,837,829
35110,826,824
35115,812,828
35120,806,828
35125,802,825
35130,800,827
35135,775,820
35140,779,820
35145,771,821
35150,768,815
35155,760,822
35160,755,815
35165,747,820
35170,747,819
35175,744,817
35180,757,812
35185,740,817
35190,742,812
35195,748,823
35200,750,817
35205,746,818
35210,754,818
35215,772,815
35220,763,817
35225,767,809
35230,777,813
35235,780,813
35240,793,812
35245,802,818
35250,809,806
35255,821,806
35260,827,808
35265,837,808
35270,853,806
35275,859,808
35280,871,806
35285,896,797
35290,900,802
35295,907,796
35300,932,798
35305,930,796
35310,953,794
35315,959,789
35320,978,789
35325,988,788
35330,992,790
35335,1016,784
35340,1026,784
35345,1039,780
35350,1052,777
35355,1057,775
35360,1075,774
35365,1090,771
35370,1096,771
35375,1108,767
35380,1124,769
35385,1119,767
35390,1136,764
35395,1136,759
35400,1147,767
35405,1149,761
35410,1166,755
35415,1170,756
35420,1168,757
35425,1173,752
35430,1172,747
35435,1178,749
35440,1186,756
35445,1186,749
35450,1184,746
35455,1186,744
35460,1192,750
35465,1187,753
35470,1184,744
35475,1181,745
35480,1181,753
35485,1186,751
35490,1178,750
35495,1181,748
35500,1173,750
35505,1172,750
35510,1165,757
35515,1165,747
35520,1154,759
35525,1166,758
35530,1145,760
35535,1156,755
35540,1151,765
35545,1142,765
35550,1150,764
35555,1140,771
35560,1139,774
35565,1129,775
35570,1130,778
35575,1128,775
35580,1115,782
35585,1111,787
35590,1121,789
35595,1115,789
35600,1109,791
35605,1105,794
35610,1103,801
35615,1096,803
35620,1097,803
35625,1101,813
35630,1091,809
35635,1099,813
35640,1092,812
35645,1087,812
35650,1091,823
35655,1080,824
35660,1085,816
35665,1072,828
35670,1079,820
35675,1080,829
35680,1072,833
35685,1068,832
35690,1054,832
35695,1058,827
35700,1054,831
35705,1049,834
35710,1037,838
35715,1044,839
35720,1033,840
35725,1026,836
35730,1029,837
35735,1016,842
35740,1011,839
35745,1010,837
35750,998,839
35755,993,837
35760,987,836
35765,969,837
35770,956,839
35775,959,833
35780,946,839
35785,947,836
35790,929,836
35795,923,846
35800,918,832
35805,904,831
35810,899,833
35815,877,829
35820,874,831
35825,860,829
35830,853,824
35835,844,824
35840,830,821
35845,819,825
35850,814,826
35855,802,824
35860,807,829
35865,791,827
35870,792,824
35875,782,817
35880,770,822
35885,769,826
35890,759,821
35895,756,822
35900,755,822
35905,750,813
35910,752,821
35915,753,817
35920,742,817
35925,744,817
35930,749,822
35935,758,818
35940,759,814
35945,748,810
35950,759,817
35955,760,817
35960,774,812
35965,771,817
35970,783,814
35975,792,815
35980,803,807
35985,802,814
35990,816,807
35995,833,805
36000,844,810
36005,843,809
36010,859,807
36015,875,799
36020,883,809
36025,898,794
36030,904,795
36035,921,796
36040,936,796
36045,946,788
36050,969,794
36055,970,795
36060,994,793
36065,1005,789
36070,1003,785
36075,1026,786
36080,1041,783
36085,1051,781
36090,1063,775
36095,1067,775
36100,1084,771
36105,1091,773
36110,1097,773
36115,1110,764
36120,1119,759
36125,1129,764
36130,1143,766
36135,1148,764
36140,1151,756
36145,1164,759
36150,1159,758
36155,1176,756
36160,1180,751
36165,1171,753
36170,1182,748
36175,1186,750
36180,1185,748
36185,1186,744
36190,1185,741
36195,1197,744
36200,1187,753
36205,1194,745
36210,1182,749
36215,1190,744
36220,1181,755
36225,1181,752
36230,1181,749
36235,1182,752
36240,1178,748
36245,1167,750
36250,1167,759
36255,1168,757
36260,1163,756
36265,1159,756
36270,1153,765
36275,1145,767
36280,1148,769
36285,1141,771
36290,1133,767
36295,1134,776
36300,1128,777
36305,1133,775
36310,1120,779
36315,1122,784
36320,1116,784
36325,1114,790
36330,1117,794
36335,1119,799
36340,1102,798
36345,1110,805
36350,1104,801
36355,1102,806
36360,1100,807
36365,1099,809
36370,1101,810
36375,1095,814
36380,1084,818
36385,1074,817
36390,1091,823
36395,1081,822
36400,1072,826
36405,1078,825
36410,1062,829
36415,1070,829
36420,1065,830
36425,1069,833
36430,1067,832
36435,1051,835
36440,1052,840
36445,1048,835
36450,1039,839
36455,1042,832
36460,1027,835
36465,1030,837
36470,1025,840
36475,1003,838
36480,1013,842
36485,997,836
36490,991,835
36495,996,835
36500,971,837
36505,970,838
36510,959,838
36515,962,834
36520,943,839
36525,937,829
36530,924,837
36535,920,835
36540,912,832
36545,892,839
36550,886,831
36555,876,834
36560,875,834
36565,851,831
36570,854,834
36575,836,827
36580,829,832
36585,819,828
36590,810,827
36595,802,822
36600,797,822
36605,782,830
36610,793,823
36615,777,818
36620,769,824
36625,764,820
36630,755,822
36635,753,825
36640,758,813
36645,748,822
36650,747,825
36655,745,819
36660,745,819
36665,752,812
36670,741,825
36675,755,812
36680,745,814
36685,764,813
36690,750,814
36695,761,810
36700,769,815
36705,777,808
36710,788,815
36715,795,809
36720,811,811
36725,820,810
36730,823,804
36735,833,810
36740,840,808
36745,856,808
36750,877,803
36755,882,802
36760,894,797
36765,906,799
36770,926,796
36775,917,801
36780,943,793
36785,961,796
36790,965,794
36795,978,788
36800,996,786
36805,1004,786
36810,1028,785
36815,1028,783
36820,1047,782
36825,1061,772
36830,1076,778
36835,1073,774
36840,1094,768
36845,1112,765
36850,1106,768
36855,1121,761
36860,1133,765
36865,1138,763
36870,1149,759
36875,1146,758
36880,1158,760
36885,1159,761
36890,1168,751
36895,1182,758
36900,1172,752
36905,1173,752
36910,1185,747
36915,1184,753
36920,1192,746
36925,1185,753
36930,1189,745
36935,1197,746
36940,1191,749
36945,1193,745
36950,1191,746
36955,1190,753
36960,1189,746
36965,1184,750
36970,1168,748
36975,1173,752
36980,1175,755
36985,1169,755
36990,1159,754
36995,1160,752
