timestamp_ms,ir_finger,ir_toe
0,1044,728
5,1058,715
10,1074,714
15,1076,716
20,1088,717
25,1102,710
30,1117,708
35,1121,709
40,1129,703
45,1140,700
50,1147,699
55,1153,699
60,1160,701
65,1158,690
70,1170,702
75,1174,694
80,1183,701
85,1182,699
90,1174,700
95,1180,703
100,1188,698
105,1178,711
110,1190,704
115,1185,707
120,1196,714
125,1191,721
130,1190,719
135,1182,724
140,1175,725
145,1182,727
150,1174,734
155,1168,739
160,1169,752
165,1170,746
170,1161,754
175,1166,761
180,1150,768
185,1150,772
190,1144,779
195,1141,787
200,1132,789
205,1144,800
210,1134,801
215,1132,809
220,1126,821
225,1120,818
230,1124,819
235,1118,833
240,1111,833
245,1110,838
250,1099,840
255,1104,847
260,1104,849
265,1092,850
270,1089,856
275,1094,861
280,1090,866
285,1093,864
290,1089,871
295,1075,870
300,1086,873
305,1077,872
310,1087,873
315,1082,878
320,1069,869
325,1063,879
330,1058,872
335,1061,872
340,1057,879
345,1046,873
350,1044,873
355,1046,881
360,1028,870
365,1032,874
370,1022,871
375,1023,872
380,1013,871
385,1000,867
390,997,873
395,984,863
400,987,862
405,968,867
410,966,860
415,957,858
420,933,860
425,931,854
430,933,857
435,911,854
440,907,857
445,898,851
450,882,846
455,879,849
460,861,847
465,861,842
470,842,853
475,842,846
480,824,842
485,812,841
490,810,844
495,800,835
500,793,841
505,786,839
510,783,836
515,769,835
520,763,835
525,760,836
530,755,830
535,746,830
540,752,828
545,752,827
550,739,824
555,750,822
560,751,823
565,745,824
570,763,817
575,756,820
580,759,814
585,767,814
590,767,814
595,773,805
600,779,808
605,776,805
610,792,798
615,801,798
620,820,798
625,820,792
630,841,785
635,844,782
640,857,776
645,872,776
650,884,770
655,907,766
660,915,764
665,916,757
670,928,759
675,956,754
680,966,749
685,979,746
690,990,737
695,1009,743
700,1017,726
705,1043,729
710,1051,726
715,1058,722
720,1059,719
725,1082,714
730,1091,710
735,1101,707
740,1113,714
745,1129,709
750,1135,700
755,1135,705
760,1142,701
765,1150,699
770,1163,700
775,1174,696
780,1172,699
785,1165,698
790,1185,693
795,1188,701
800,1190,701
805,1186,701
810,1189,702
815,1188,704
820,1176,711
825,1193,708
830,1185,712
835,1186,715
840,1190,721
845,1181,725
850,1178,730
855,1185,732
860,1172,742
865,1168,745
870,1161,753
875,1160,755
880,1166,764
885,1165,758
890,1155,770
895,1151,782
900,1146,781
905,1138,785
910,1135,793
915,1136,798
920,1141,795
925,1114,809
930,1128,813
935,1124,817
940,1118,827
945,1116,827
950,1110,831
955,1110,841
960,1108,839
965,1108,853
970,1102,847
975,1105,854
980,1098,861
985,1092,859
990,1082,868
995,1091,867
1000,1088,867
1004,1076,867
1010,1082,868
1014,1085,869
1020,1069,873
1025,1073,875
1030,1076,875
1035,1067,872
1040,1061,877
1045,1062,877
1050,1058,877
1055,1053,877
1060,1042,872
1065,1036,875
1070,1041,871
1075,1030,871
1080,1029,871
1085,1009,872
1090,1008,868
1095,1003,870
1100,994,869
1105,994,870
1110,984,866
1115,966,865
1120,961,858
1125,955,860
1130,935,856
1135,933,859
1140,926,851
1145,913,853
1150,898,849
1155,889,854
1160,880,846
1165,878,845
1170,870,846
1175,858,845
1180,833,846
1185,830,844
1190,821,841
1195,814,840
1200,813,834
1205,799,842
1210,793,842
1215,783,836
1220,771,840
1225,775,837
1230,759,835
1235,764,837
1240,753,832
1245,750,833
1250,756,826
1255,742,826
1260,751,822
1265,743,822
1270,746,825
1275,753,823
1280,755,820
1285,751,820
1290,759,818
1295,756,818
1300,778,810
1305,766,811
1310,783,803
1315,800,803
1320,803,797
1325,810,799
1330,828,795
1335,822,792
1340,848,783
1345,854,779
1350,866,786
1355,876,774
1360,886,767
1365,903,765
1370,911,768
1375,925,758
1380,950,755
1385,970,751
1390,979,748
1395,980,742
1400,1003,743
1405,1006,740
1410,1023,733
1415,1034,731
1420,1045,725
1425,1059,717
1430,1064,712
1435,1086,711
1440,1096,711
1445,1101,711
1450,1114,705
1455,1127,703
1460,1136,704
1465,1147,700
1470,1155,699
1475,1156,692
1480,1166,693
1485,1168,694
1490,1170,695
1495,1179,698
1500,1181,698
1505,1190,702
1510,1186,700
1515,1182,701
1520,1185,706
1525,1192,701
1530,1181,708
1535,1202,711
1540,1188,716
1545,1191,712
1550,1187,731
1555,1179,728
1560,1178,735
1565,1179,736
1570,1174,741
1575,1168,752
1580,1165,749
1585,1160,758
1590,1159,759
1595,1161,765
1600,1153,772
1605,1156,770
1610,1158,783
1615,1141,787
1620,1131,792
1625,1132,800
1630,1129,810
1635,1129,811
1640,1123,816
1645,1123,823
1650,1124,825
1655,1112,832
1660,1111,832
1665,1109,846
1670,1102,842
1675,1104,846
1680,1098,848
1685,1099,855
1690,1109,857
1695,1095,863
1700,1090,856
1705,1082,867
1710,1079,869
1715,1084,870
1720,1077,874
1725,1080,877
1730,1077,874
1735,1072,883
1740,1067,876
1745,1064,877
1750,1062,881
1755,1061,882
1760,1046,876
1765,1040,876
1770,1046,875
1775,1031,876
1780,1040,873
1785,1028,878
1790,1024,879
1795,1017,870
1800,1006,868
1805,995,862
1810,991,867
1815,983,866
1820,975,862
1825,968,866
1830,956,858
1835,954,860
1840,947,851
1845,930,855
1850,926,851
1855,913,849
1860,896,851
1865,888,852
1870,883,849
1875,867,845
1880,854,844
1885,851,844
1890,843,844
1895,839,838
1900,815,840
1905,817,842
1910,809,840
1915,803,835
1920,788,835
1925,779,840
1930,776,833
1935,773,836
1940,762,834
1945,754,837
1950,763,833
1955,755,830
1960,748,827
1965,743,826
1970,742,832
1975,744,822
1980,741,822
1985,750,824
1990,753,822
1995,755,817
2000,761,815
2005,769,816
2009,779,804
2015,781,809
2020,786,801
2025,798,803
2029,800,797
2035,803,794
2040,823,788
2045,827,786
2050,849,791
2055,848,782
2060,870,782
2065,882,774
2070,891,773
2075,899,765
2080,919,760
2085,929,757
2090,952,753
2095,958,753
2100,975,743
2105,984,741
2110,1003,735
2115,1015,733
2120,1028,731
2125,1046,730
2130,1056,722
2135,1058,719
2140,1079,719
2145,1087,712
2150,1102,709
2155,1104,706
2160,1113,705
2165,1128,703
2170,1138,704
2175,1151,701
2180,1145,698
2185,1154,701
2190,1159,688
2195,1170,693
2200,1170,700
2205,1177,703
2210,1178,702
2215,1190,700
2220,1182,701
2225,1192,699
2230,1186,703
2235,1185,707
2240,1199,706
2245,1181,706
2250,1194,711
2255,1185,720
2260,1192,723
2265,1174,735
2270,1168,733
2275,1183,736
2280,1166,738
2285,1172,750
2290,1165,746
2295,1163,759
2300,1159,766
2305,1150,770
2310,1148,772
2315,1143,775
2320,1145,782
2325,1145,786
2330,1134,799
2335,1133,801
2340,1133,807
2345,1130,810
2350,1119,813
2355,1113,823
2360,1110,821
2365,1121,829
2370,1116,839
2375,1107,839
2380,1108,846
2385,1093,844
2390,1100,855
2395,1086,859
2400,1092,860
2405,1090,866
2410,1082,868
2415,1094,866
2420,1083,867
2425,1092,875
2430,1080,872
2435,1078,871
2440,1062,874
2445,1071,871
2450,1065,877
2455,1073,873
2460,1060,879
2465,1061,876
2470,1053,879
2475,1043,875
2480,1037,872
2485,1037,877
2490,1042,866
2495,1021,877
2500,1020,869
2505,1008,866
2510,1003,868
2515,1002,864
2520,980,872
2525,969,866
2530,975,862
2535,962,859
2540,951,863
2545,950,860
2550,938,851
2555,915,851
2560,923,853
2565,897,858
2570,896,853
2575,877,847
2580,875,847
2585,863,842
2590,856,845
2595,847,842
2600,830,846
2605,833,841
2610,821,845
2615,809,838
2620,800,837
2625,789,841
2630,791,837
2635,784,833
2640,783,833
2645,767,840
2650,762,836
2655,765,835
2660,761,831
2665,749,822
2670,748,831
2675,756,822
2680,743,819
2685,750,824
2690,743,818
2695,746,824
2700,755,821
2705,755,819
2710,761,819
2715,772,808
2720,772,808
2725,787,812
2730,796,800
2735,790,798
2740,804,799
2745,818,795
2750,817,790
2755,839,795
2760,848,792
2765,865,778
2770,870,782
2775,889,771
2780,899,763
2785,906,765
2790,923,764
2795,928,756
2800,952,754
2805,962,749
2810,973,750
2815,993,744
2820,1005,735
2825,1014,731
2830,1032,733
2835,1035,721
2840,1055,723
2845,1074,716
2850,1078,718
2855,1092,712
2860,1093,706
2865,1110,710
2870,1126,704
2875,1130,701
2880,1145,705
2885,1136,700
2890,1152,705
2895,1156,693
2900,1166,703
2905,1170,695
2910,1174,701
2915,1173,698
2920,1186,698
2925,1184,699
2930,1184,699
2935,1181,703
2940,1188,706
2945,1191,705
2950,1190,708
2955,1189,714
2960,1192,713
2965,1177,716
2970,1189,720
2975,1175,733
2980,1179,730
2985,1181,737
2990,1169,744
2995,1172,749
3000,1162,755
3005,1158,758
3010,1158,764
3015,1159,769
3020,1147,773
3025,1141,778
3030,1139,783
3035,1128,794
3040,1139,800
3045,1131,802
3050,1132,809
3055,1116,813
3060,1118,815
3065,1126,822
3070,1120,824
3075,1105,834
3080,1108,841
3085,1103,839
3090,1108,842
3095,1108,851
3100,1104,855
3105,1096,859
3110,1102,862
3115,1096,860
3120,1091,869
3125,1084,867
3130,1087,875
3135,1085,872
3140,1084,875
3145,1070,877
3150,1072,874
3155,1072,878
3160,1069,872
3165,1057,877
3170,1058,871
3175,1062,880
3180,1056,872
3185,1042,879
3190,1042,870
3195,1032,877
3200,1033,870
3205,1019,873
3210,1019,873
3215,1007,866
3220,998,864
3225,1000,869
3230,998,870
3235,985,863
3240,975,858
3245,962,857
3250,957,854
3255,949,854
3260,928,853
3265,921,849
3270,914,853
3275,905,852
3280,900,846
3285,879,850
3290,876,842
3295,866,845
3300,859,848
3305,836,849
3310,833,839
3315,818,847
3320,811,841
3325,802,838
3330,798,841
3335,792,838
3340,796,837
3345,779,839
3350,772,831
3355,766,831
3360,768,834
3365,758,828
3370,762,830
3375,743,831
3380,744,824
3385,746,826
3390,746,820
3395,743,824
3400,747,822
3405,743,814
3410,757,816
3415,765,817
3420,756,815
3425,766,811
3430,773,813
3435,780,807
3440,792,804
3445,808,801
3450,812,791
3455,817,790
3460,836,789
3465,846,787
3470,847,786
3475,859,775
3480,878,777
3485,894,772
3490,892,774
3495,921,766
3500,926,759
3505,952,757
3510,963,754
3515,974,743
3520,974,748
3525,997,739
3530,1016,736
3535,1016,731
3540,1031,728
3545,1045,726
3550,1060,723
3555,1070,712
3560,1079,715
3565,1088,714
3570,1099,709
3575,1115,709
3580,1128,708
3585,1136,707
3590,1146,701
3595,1153,700
3600,1155,698
3605,1159,696
3610,1166,697
3615,1175,700
3620,1178,696
3625,1164,699
3630,1177,702
3635,1192,699
3640,1187,703
3645,1178,704
3650,1184,712
3655,1184,711
3660,1177,710
3665,1183,717
3670,1184,719
3675,1180,718
3680,1189,729
3685,1184,728
3690,1181,732
3695,1177,740
3700,1168,744
3705,1163,752
3710,1157,751
3715,1162,760
3720,1162,764
3725,1159,774
3730,1149,782
3735,1137,775
3740,1147,792
3745,1142,793
3750,1138,794
3755,1123,800
3760,1126,805
3765,1125,821
3770,1130,819
3775,1123,822
3780,1108,832
3785,1113,836
3790,1114,839
3795,1109,842
3800,1096,847
3805,1104,850
3810,1095,855
3815,1092,857
3820,1092,858
3825,1093,864
3830,1088,867
3835,1084,871
3840,1083,870
3845,1088,868
3850,1087,871
3855,1080,875
3860,1071,875
3865,1064,875
3870,1069,871
3875,1064,876
3880,1067,877
3885,1058,874
3890,1044,874
3895,1043,873
3900,1035,879
3905,1039,880
3910,1033,871
3915,1027,871
3920,1015,868
3925,1013,864
3930,1003,868
3935,1004,864
3940,986,865
3945,967,864
3950,973,864
3955,953,860
3960,959,860
3965,934,860
3970,935,859
3975,927,856
3980,910,856
3985,901,848
3990,891,849
3995,880,846
4000,871,850
4005,860,847
4010,859,843
4014,841,849
4019,830,843
4025,822,840
4030,818,841
4035,805,844
4040,808,836
4045,789,841
4050,780,831
4054,783,834
4059,767,834
4065,758,833
4070,766,829
4075,750,830
4080,747,831
4085,762,830
4090,745,828
4094,747,825
4100,751,824
4105,760,828
4110,756,822
4115,753,818
4120,764,816
4125,758,821
4130,767,813
4135,774,814
4140,777,808
4145,786,802
4150,794,798
4155,798,800
4160,812,797
4165,813,790
4170,834,792
4175,836,782
4180,844,779
4185,868,779
4190,869,772
4195,883,778
4200,900,767
4205,924,763
4210,923,763
4215,939,763
4220,957,755
4225,971,751
4230,984,744
4235,1003,740
4240,1007,732
4245,1030,736
4250,1045,726
4255,1050,725
4260,1059,724
4265,1071,715
4270,1082,719
4275,1083,713
4280,1103,709
4285,1115,705
4290,1129,699
4295,1139,698
4300,1143,695
4305,1158,698
4310,1157,702
4315,1156,695
4320,1167,694
4325,1176,694
4330,1178,698
4335,1177,696
4340,1189,696
4345,1180,694
4350,1177,701
4355,1182,702
4360,1188,704
4365,1191,706
4370,1191,710
4375,1189,712
4380,1186,720
4385,1183,725
4390,1179,727
4395,1182,730
4400,1175,737
4405,1165,743
4410,1178,746
4415,1168,752
4420,1160,750
4425,1163,762
4430,1157,766
4435,1158,776
4440,1148,776
4445,1136,784
4450,1138,788
4455,1145,797
4460,1138,803
4465,1129,806
4470,1129,812
4475,1125,821
4480,1117,824
4485,1115,827
4490,1110,829
4495,1113,836
4500,1116,844
4505,1124,840
4510,1101,844
4515,1105,851
4520,1097,854
4525,1097,862
4530,1093,858
4535,1089,862
4540,1086,867
4545,1084,869
4550,1080,871
4555,1086,868
4560,1078,874
4565,1073,882
4570,1075,881
4575,1075,874
4580,1059,880
4585,1063,875
4590,1052,880
4595,1059,878
4600,1045,877
4605,1053,877
4610,1047,873
4615,1035,875
4620,1019,869
4625,1022,872
4630,1011,877
4635,1013,871
4640,1000,863
4645,990,868
4650,982,871
4655,973,866
4660,958,857
4665,954,862
4670,957,854
4675,940,859
4680,928,857
4685,925,860
4690,910,857
4695,900,846
4700,892,847
4705,882,848
4710,872,850
4715,848,840
4720,848,847
4725,846,843
4730,831,845
4735,814,843
4740,809,838
4745,800,843
4750,795,839
4755,798,840
4760,783,836
4765,773,836
4770,771,836
4775,764,833
4780,753,833
4785,759,826
4790,754,831
4795,750,834
4800,750,830
4805,745,825
4810,748,832
4815,748,819
4820,753,823
4825,755,816
4830,753,821
4835,760,816
4840,770,811
4845,772,804
4850,781,812
4855,780,805
4860,791,800
4865,805,799
4870,810,794
4875,827,788
4880,834,787
4885,846,787
4890,855,782
4895,864,778
4900,872,777
4905,888,773
4910,907,766
4915,918,764
4920,941,756
4925,953,754
4930,957,750
4935,971,744
4940,1001,741
4945,1003,736
4950,1022,729
4955,1029,724
4960,1036,720
4965,1055,725
4970,1070,722
4975,1075,715
4980,1094,709
4985,1108,714
4990,1104,706
4995,1113,706
5000,1121,703
5005,1142,706
5010,1138,698
5015,1149,700
5020,1161,699
5025,1162,700
5030,1168,701
5035,1162,695
5040,1169,696
5045,1182,697
5050,1183,695
5055,1191,694
5060,1187,705
5065,1186,702
5070,1189,708
5075,1188,706
5080,1186,712
5085,1192,719
5090,1187,721
5095,1179,722
5100,1180,732
5105,1173,737
5110,1172,737
5115,1174,744
5120,1172,748
5125,1176,755
5130,1156,756
5135,1163,760
5140,1149,769
5145,1147,775
5150,1147,781
5155,1135,782
5160,1143,790
5165,1142,797
5170,1124,800
5175,1131,807
5180,1128,812
5185,1126,817
5190,1116,821
5195,1108,830
5200,1108,831
5205,1105,834
5210,1120,845
5215,1112,846
5220,1095,847
5225,1091,847
5230,1103,856
5235,1085,864
5240,1086,860
5245,1090,865
5250,1092,872
5255,1093,868
5260,1078,869
5265,1078,876
5270,1094,877
5275,1075,877
5280,1078,874
5285,1069,876
5290,1068,876
5295,1061,876
5300,1052,879
5305,1052,875
5310,1043,876
5315,1047,875
5320,1034,871
5325,1032,871
5330,1027,873
5335,1015,870
5340,1008,866
5345,1004,867
5350,995,868
5355,985,868
5360,993,859
5365,980,863
5370,960,861
5375,953,862
5380,946,856
5385,938,860
5390,944,857
5395,926,849
5400,901,851
5405,897,847
5410,888,847
5415,873,850
5420,859,846
5425,850,848
5430,842,847
5435,841,846
5440,833,845
5445,814,844
5450,814,841
5455,807,841
5460,796,834
5465,787,844
5470,774,836
5475,779,838
5480,763,835
5485,760,832
5490,761,832
5495,753,832
5500,749,826
5505,745,827
5510,754,827
5515,751,824
5520,751,822
5525,747,827
5530,747,818
5535,751,816
5540,754,817
5545,766,814
5550,765,809
5555,781,809
5560,772,805
5565,785,802
5570,789,798
5575,804,801
5580,816,795
5585,823,793
5590,836,791
5595,850,779
5600,858,780
5605,873,776
5610,882,774
5615,901,775
5620,914,765
5625,932,763
5630,930,757
5635,943,751
5640,967,751
5645,968,749
5650,1001,742
5655,1006,737
5660,1019,731
5665,1025,731
5670,1036,728
5675,1067,722
5680,1066,715
5685,1080,717
5690,1090,712
5695,1106,713
5700,1110,708
5705,1118,700
5710,1137,705
5715,1140,708
5720,1145,704
5725,1149,700
5730,1157,697
5735,1162,695
5740,1163,694
5745,1166,698
5750,1180,701
5755,1185,705
5760,1183,700
5765,1188,706
5770,1195,701
5775,1192,701
5780,1191,709
5785,1188,706
5790,1189,715
5795,1185,718
5800,1183,722
5805,1180,723
5810,1188,736
5815,1173,735
5820,1183,733
5825,1179,743
5830,1162,747
5835,1161,750
5840,1170,758
5845,1162,761
5850,1156,765
5855,1150,778
5860,1149,782
5865,1140,787
5870,1139,789
5875,1132,802
5880,1136,807
5885,1135,808
5890,1129,811
5895,1124,820
5900,1124,825
5905,1110,829
5910,1109,832
5915,1104,843
5920,1115,845
5925,1101,845
5930,1108,848
5935,1096,854
5940,1098,858
5945,1101,855
5950,1093,865
5955,1086,866
5960,1084,874
5965,1085,873
5970,1089,869
5975,1074,873
5980,1077,870
5985,1070,876
5990,1074,867
5995,1061,882
6000,1060,871
6005,1066,876
6010,1062,875
6015,1061,874
6020,1049,867
6025,1040,877
6030,1038,873
6035,1024,878
6040,1023,873
6045,1016,873
6050,1013,871
6055,1002,863
6060,996,869
6065,991,864
6070,974,864
6075,970,863
6080,956,861
6085,957,862
6090,934,860
6095,941,853
6100,926,849
6105,917,853
6110,910,853
6115,898,848
6120,877,843
6125,870,846
6130,862,849
6135,857,843
6140,849,845
6145,839,844
6150,827,841
6155,821,843
6160,815,840
6165,801,837
6170,784,838
6175,784,829
6180,780,833
6185,781,838
6190,764,837
6195,765,837
6200,754,838
6205,760,828
6210,757,826
6215,748,831
6220,743,823
6225,752,823
6230,742,824
6235,742,827
6240,747,822
6245,753,820
6250,761,818
6255,771,814
6260,768,813
6265,772,805
6270,786,803
6275,794,806
6280,790,797
6285,815,797
6290,823,800
6295,833,791
6300,845,790
6305,848,787
6310,862,780
6315,873,775
6320,894,777
6325,900,765
6330,919,768
6335,930,757
6340,941,758
6345,955,751
6350,967,748
6355,986,740
6360,1010,742
6365,1012,732
6370,1020,729
6375,1027,730
6380,1039,725
6385,1052,719
6390,1064,713
6395,1078,708
6400,1096,712
6405,1112,708
6410,1113,702
6415,1117,702
6420,1134,704
6425,1140,704
6430,1146,693
6435,1145,699
6440,1160,695
6445,1173,698
6450,1173,696
6455,1166,695
6460,1187,698
6465,1179,697
6470,1175,700
6475,1187,697
6480,1199,701
6485,1190,708
6490,1185,713
6495,1185,706
6500,1183,717
6505,1184,718
6510,1183,721
6515,1184,724
6520,1177,728
6525,1185,737
6530,1180,740
6535,1172,747
6540,1162,755
6545,1154,749
6550,1153,755
6555,1161,771
6560,1150,768
6565,1144,779
6570,1135,778
6575,1140,793
6580,1136,793
6585,1138,802
6590,1130,803
6595,1133,807
6600,1125,820
6605,1123,817
6610,1126,823
6615,1119,835
6620,1114,837
6625,1102,838
6630,1112,846
6635,1105,849
6640,1107,850
6645,1102,858
6650,1090,859
6655,1095,857
6660,1090,865
6665,1093,862
6670,1089,873
6675,1079,867
6680,1086,874
6685,1080,874
6690,1075,879
6695,1078,877
6700,1070,877
6705,1065,882
6710,1065,873
6715,1052,875
6720,1053,870
6725,1047,884
6730,1050,878
6735,1038,876
6740,1032,878
6745,1031,872
6750,1022,872
6755,1026,870
6760,1013,873
6765,1002,869
6770,990,866
6775,994,864
6780,979,866
6785,964,859
6790,960,857
6795,949,857
6800,939,856
6805,930,856
6810,913,857
6815,914,850
6820,900,851
6825,897,850
6830,880,848
6835,872,846
6840,868,844
6845,853,844
6850,842,844
6855,832,843
6860,817,845
6865,812,838
6870,801,836
6875,790,838
6880,790,840
6885,792,835
6890,773,837
6895,773,830
6900,766,835
6905,749,839
6910,757,830
6915,750,831
6920,748,828
6925,755,825
6930,748,825
6935,743,826
6940,748,824
6945,756,818
6950,751,818
6955,758,816
6960,760,818
6965,766,817
6970,769,813
6975,776,807
6980,779,805
6985,796,803
6990,798,798
6995,804,793
7000,811,796
7005,833,794
7010,850,786
7015,852,782
7020,870,778
7025,882,776
7030,891,767
7035,906,770
7040,917,765
7045,929,761
7050,947,751
7055,951,751
7060,979,745
7065,981,745
7070,999,742
7075,1009,738
7080,1033,731
7085,1034,730
7090,1046,717
7095,1063,717
7100,1085,713
7105,1082,707
7110,1099,711
7115,1106,709
7120,1111,702
7125,1121,699
7130,1129,703
7135,1154,701
7140,1148,706
7145,1162,696
7150,1167,698
7155,1165,698
7160,1180,701
7165,1177,694
7170,1176,702
7175,1185,697
7180,1185,703
7185,1192,702
7190,1177,706
7195,1188,704
7200,1203,712
7205,1183,714
7210,1177,720
7215,1185,720
7220,1194,731
7225,1171,725
7230,1178,733
7235,1169,731
7240,1174,741
7245,1166,746
7250,1162,751
7255,1167,760
7260,1162,764
7265,1158,768
7270,1155,774
7275,1142,773
7280,1148,781
7285,1153,788
7290,1136,793
7295,1128,802
7300,1133,809
7305,1129,811
7310,1124,818
7315,1118,819
7320,1116,825
7325,1110,828
7330,1103,837
7335,1109,842
7340,1102,848
7345,1098,859
7350,1097,854
7355,1092,860
7360,1104,862
7365,1090,859
7370,1084,862
7375,1096,870
7380,1091,872
7385,1076,875
7390,1079,879
7395,1077,872
7400,1079,877
7405,1078,872
7410,1079,876
7415,1064,876
7420,1063,880
7425,1040,878
7430,1053,877
7435,1049,875
7440,1056,876
7445,1043,880
7450,1041,873
7455,1029,871
7460,1024,865
7465,1019,869
7470,1007,865
7475,998,865
7480,989,864
7485,981,861
7490,971,862
7495,964,865
7500,955,863
7505,940,855
7510,933,861
7515,924,854
7520,918,852
7525,915,853
7530,911,852
7535,883,848
7540,881,849
7545,873,850
7550,866,851
7555,847,839
7560,842,845
7565,833,842
7570,816,848
7575,815,840
7580,812,839
7585,803,838
7590,782,839
7595,770,841
7600,768,839
7605,771,836
7610,756,834
7615,764,831
7620,753,832
7625,752,832
7630,758,830
7635,745,830
7640,749,828
7645,748,826
7650,748,826
7655,753,821
7660,749,817
7665,759,815
7670,762,817
7675,763,818
7680,786,810
7685,781,808
7690,786,802
7695,797,802
7700,799,797
7705,803,800
7710,826,791
7715,840,795
7720,850,784
7725,859,785
7730,865,776
7735,885,773
7740,893,771
7745,912,766
7750,918,763
7755,932,748
7760,945,754
7765,963,755
7770,971,748
7775,988,735
7780,1002,740
7785,1015,734
7790,1022,728
7795,1040,727
7800,1059,723
7805,1069,723
7810,1076,712
7815,1097,713
7820,1097,713
7825,1115,709
7830,1121,707
7835,1127,702
7840,1136,700
7845,1148,701
7850,1160,701
7855,1177,697
7860,1159,694
7865,1171,695
7870,1167,696
7875,1177,694
7880,1194,703
7885,1190,694
7890,1184,700
7895,1178,703
7900,1188,706
7905,1191,709
7910,1198,710
7915,1184,709
7920,1187,714
7925,1185,716
7930,1187,721
7935,1176,729
7940,1178,730
7945,1176,741
7950,1178,742
7955,1172,748
7960,1166,754
7965,1160,758
7970,1159,761
7975,1150,771
7980,1152,777
7985,1158,781
7990,1139,787
7995,1137,786
8000,1133,794
8005,1122,803
8010,1130,812
8015,1123,813
8020,1113,816
8025,1111,827
8029,1114,826
8035,1104,828
8039,1107,837
8045,1115,839
8050,1106,845
8055,1105,847
8060,1110,847
8064,1100,858
8070,1087,856
8074,1094,864
8080,1098,863
8085,1089,869
8090,1094,863
8095,1077,876
8100,1080,880
8105,1077,873
8109,1069,878
8115,1065,874
8119,1072,876
8125,1063,877
8130,1062,875
8135,1056,876
8140,1050,881
8145,1047,876
8150,1042,876
8154,1034,876
8160,1034,872
8164,1026,874
8170,1015,869
8175,1020,869
8180,1003,867
8185,989,868
8189,991,864
8195,982,857
8200,975,861
8205,959,861
8210,951,861
8215,952,860
8220,936,860
8225,930,855
8230,920,856
8235,901,853
8240,894,851
8245,887,847
8250,871,843
8255,871,850
8260,863,843
8265,834,847
8270,837,846
8275,828,846
8280,823,841
8285,807,839
8290,808,841
8295,793,841
8300,784,836
8305,776,839
8310,784,844
8315,765,832
8320,768,834
8325,762,831
8330,755,831
8335,757,828
8340,743,824
8345,744,829
8350,736,826
8355,746,822
8360,758,820
8365,759,820
8370,749,818
8375,761,819
8380,761,821
8385,760,814
8390,771,811
8395,785,807
8400,781,806
8405,796,803
8410,806,801
8415,811,799
8420,819,793
8425,840,792
8430,850,783
8435,864,779
8440,876,782
8445,889,775
8450,891,763
8455,917,765
8460,929,767
8465,941,760
8470,954,752
8475,963,751
8480,976,737
8485,984,738
8490,1008,736
8495,1018,736
8500,1037,732
8505,1044,721
8510,1062,720
8515,1083,712
8520,1083,712
8525,1092,715
8530,1102,711
8535,1105,710
8540,1121,703
8545,1128,700
8550,1140,703
8555,1149,698
8560,1150,698
8565,1157,693
8570,1170,699
8575,1164,703
8580,1180,690
8585,1175,697
8590,1179,701
8595,1182,699
8600,1181,698
8605,1182,704
8610,1186,702
8615,1185,706
8620,1184,715
8625,1191,711
8630,1179,712
8635,1176,719
8640,1177,729
8645,1178,726
8650,1187,730
8655,1170,740
8660,1171,743
8665,1166,750
8670,1163,763
8675,1160,761
8680,1167,762
8685,1154,773
8690,1145,774
8695,1144,782
8700,1142,785
8705,1140,787
8710,1134,796
8715,1132,800
8720,1127,807
8725,1128,820
8730,1124,816
8735,1120,824
8740,1116,825
8745,1108,840
8750,1122,836
8755,1107,845
8760,1103,843
8765,1106,848
8770,1094,853
8775,1090,859
8780,1095,861
8785,1091,866
8790,1091,867
8795,1097,865
8800,1084,869
8805,1084,871
8810,1076,878
8815,1079,872
8820,1071,871
8825,1061,876
8830,1067,882
8835,1064,876
8840,1062,876
8845,1062,879
8850,1053,874
8855,1044,875
8860,1044,875
8865,1039,880
8870,1026,878
8875,1019,868
8880,1018,873
8885,1010,868
8890,995,876
8895,993,869
8900,990,865
8905,973,867
8910,975,861
8915,968,864
8920,950,861
8925,946,860
8930,940,857
8935,922,853
8940,919,855
8945,906,851
8950,894,849
8955,884,847
8960,869,844
8965,857,849
8970,853,845
8975,847,844
8980,834,844
8985,822,840
8990,826,842
8995,817,839
9000,804,839
9005,800,835
9010,780,838
9015,775,839
9020,780,831
9025,765,832
9030,758,827
9035,756,827
9040,758,826
9045,756,835
9050,753,826
9055,745,825
9060,755,824
9065,747,821
9070,753,823
9075,768,821
9080,767,814
9085,759,818
9090,770,814
9095,768,811
9100,777,816
9105,782,807
9110,788,804
9115,793,801
9120,806,793
9125,808,793
9130,834,789
9135,836,789
9140,855,785
9145,863,780
9150,870,774
9155,889,772
9160,905,768
9165,913,766
9170,930,758
9175,951,757
9180,952,751
9185,966,751
9190,981,741
9195,994,737
9200,1010,732
9205,1021,735
9210,1033,730
9215,1045,723
9220,1062,722
9225,1059,720
9230,1085,716
9235,1094,712
9240,1098,710
9245,1111,705
9250,1122,702
9255,1137,701
9260,1139,698
9265,1150,697
9270,1145,699
9275,1166,699
9280,1168,701
9285,1176,694
9290,1179,695
9295,1180,695
9300,1184,697
9305,1186,699
9310,1198,704
9315,1188,704
9320,1181,704
9325,1183,702
9330,1184,713
9335,1186,714
9340,1180,719
9345,1182,722
9350,1176,724
9355,1185,727
9360,1175,729
9365,1174,738
9370,1177,744
9375,1172,750
9380,1163,752
9385,1161,759
9390,1159,764
9395,1152,770
9400,1160,778
9405,1145,779
9410,1146,789
9415,1139,796
9420,1130,796
9425,1134,807
9430,1127,810
9435,1123,817
9440,1120,815
9445,1112,822
9450,1109,826
9455,1111,840
9460,1107,842
9465,1107,844
9470,1097,845
9475,1101,854
9480,1095,855
9485,1099,856
9490,1090,857
9495,1086,863
9500,1090,868
9505,1089,872
9510,1076,878
9515,1081,875
9520,1087,874
9525,1088,874
9530,1082,876
9535,1059,876
9540,1070,879
9545,1059,875
9550,1057,879
9555,1046,875
9560,1048,873
9565,1053,873
9570,1039,876
9575,1043,873
9580,1022,871
9585,1020,868
9590,1022,870
9595,1013,869
9600,993,866
9605,991,866
9610,987,863
9615,970,864
9620,968,866
9625,959,858
9630,963,858
9635,934,857
9640,927,853
9645,918,851
9650,898,859
9655,904,854
9660,894,852
9665,884,843
9670,887,852
9675,870,844
9680,859,845
9685,847,841
9690,827,846
9695,818,839
9700,816,846
9705,808,843
9710,805,838
9715,786,838
9720,783,840
9725,781,838
9730,767,835
9735,766,832
9740,756,833
9745,751,831
9750,752,829
9755,752,827
9760,753,827
9765,748,822
9770,747,830
9775,748,825
9780,745,823
9785,750,817
9790,746,818
9795,762,813
9800,770,815
9805,778,811
9810,780,807
9815,792,807
9820,792,805
9825,811,799
9830,807,800
9835,822,793
9840,832,789
9845,841,786
9850,858,779
9855,861,781
9860,878,776
9865,891,774
9870,909,764
9875,924,763
9880,931,759
9885,940,754
9890,959,749
9895,978,746
9900,987,741
9905,1006,736
9910,1000,735
9915,1022,726
9920,1037,723
9925,1049,723
9930,1065,727
9935,1085,711
9940,1085,715
9945,1093,711
9950,1108,705
9955,1107,707
9960,1137,701
9965,1138,701
9970,1154,701
9975,1147,699
9980,1150,697
9985,1173,693
9990,1166,700
9995,1166,698
10000,1182,691
10005,1181,697
10010,1178,694
10015,1186,697
10020,1187,703
10025,1176,702
10030,1185,707
10035,1192,710
10040,1193,710
10045,1184,715
10050,1188,727
10055,1184,722
10060,1175,725
10065,1183,737
10070,1177,740
10075,1165,738
10080,1170,741
10085,1163,754
10090,1169,759
10095,1170,764
10100,1152,774
10105,1147,777
10110,1152,776
10115,1151,784
10120,1135,790
10125,1143,793
10130,1131,807
10135,1128,810
10140,1124,816
10145,1117,818
10150,1121,821
10155,1119,824
10160,1109,831
10165,1102,835
10170,1116,835
10175,1111,841
10180,1109,850
10185,1105,848
10190,1097,853
10195,1099,863
10200,1094,863
10205,1092,860
10210,1085,870
10215,1091,869
10220,1093,872
10225,1086,869
10230,1074,873
10235,1075,872
10240,1078,873
10245,1068,875
10250,1059,881
10255,1065,869
10260,1058,876
10265,1055,873
10270,1048,879
10275,1042,871
10280,1035,875
10285,1032,879
10290,1023,872
10295,1022,866
10300,1019,870
10305,1014,873
10310,991,865
10315,992,869
10320,980,866
10325,971,864
10330,967,858
10335,960,861
10340,939,856
10345,937,850
10350,932,854
10355,922,857
10360,904,850
10365,889,855
10370,887,855
10375,880,848
10380,869,844
10385,860,847
10390,848,849
10395,836,847
10400,828,843
10405,816,843
10410,806,844
10415,802,841
10420,801,834
10425,791,837
10430,785,835
10435,773,835
10440,767,835
10445,764,834
10450,758,831
10455,753,830
10460,754,830
10465,755,828
10470,754,824
10475,752,823
10480,742,825
10485,741,826
10490,755,822
10495,759,817
10500,762,816
10505,767,816
10510,769,813
10515,765,814
10520,780,808
10525,785,801
10530,797,800
10535,799,801
10540,821,795
10545,820,790
10550,837,781
10555,856,783
10560,858,787
10565,870,769
10570,880,772
10575,891,766
10580,913,767
10585,923,764
10590,937,753
10595,942,753
10600,963,749
10605,982,742
10610,1000,737
10615,1012,740
10620,1024,730
10625,1031,729
10630,1040,730
10635,1052,722
10640,1061,719
10645,1079,715
10650,1085,712
10655,1103,703
10660,1111,707
10665,1122,704
10670,1121,703
10675,1131,702
10680,1146,703
10685,1152,699
10690,1152,697
10695,1168,701
10700,1159,700
10705,1178,696
10710,1181,692
10715,1191,697
10720,1180,696
10725,1184,701
10730,1182,706
10735,1182,701
10740,1193,707
10745,1193,714
10750,1192,715
10755,1183,716
10760,1191,720
10765,1175,728
10770,1179,728
10775,1171,730
10780,1172,737
10785,1170,743
10790,1161,747
10795,1168,751
10800,1162,761
10805,1151,763
10810,1159,772
10815,1155,779
10820,1145,781
10825,1138,789
10830,1139,795
10835,1126,793
10840,1130,804
10845,1123,806
10850,1123,810
10855,1115,814
10860,1116,820
10865,1113,835
10870,1109,830
10875,1098,837
10880,1102,843
10885,1107,845
10890,1095,847
10895,1099,856
10900,1095,856
10905,1091,856
10910,1099,860
10915,1088,862
10920,1091,866
10925,1094,871
10930,1088,870
10935,1084,870
10940,1084,878
10945,1074,870
10950,1069,881
10955,1062,874
10960,1060,877
10965,1069,872
10970,1057,877
10975,1057,880
10980,1039,876
10985,1046,872
10990,1040,871
10995,1030,876
11000,1020,868
11005,1021,868
11010,1011,873
11015,1004,868
11020,992,863
11025,988,868
11030,982,861
11035,970,863
11040,955,863
11045,954,862
11050,953,859
11055,937,856
11060,933,856
11065,919,852
11070,910,853
11075,886,849
11080,889,846
11085,873,852
11090,869,848
11095,865,846
11100,844,846
11105,832,841
11110,828,850
11115,821,842
11120,818,840
11125,804,837
11130,797,839
11135,779,838
11140,773,833
11145,768,833
11150,771,836
11155,768,834
11160,759,834
11165,750,834
11170,752,830
11175,745,832
11180,746,821
11185,751,826
11190,751,824
11195,751,823
11200,746,824
11205,747,821
11210,761,813
11215,757,817
11220,762,815
11225,779,805
11230,781,812
11235,776,802
11240,799,800
11245,807,798
11250,810,793
11255,825,788
11260,837,785
11265,843,784
11270,868,784
11275,875,778
11280,878,769
11285,899,772
11290,915,764
11295,919,754
11300,939,760
11305,953,749
11310,973,749
11315,987,738
11320,997,741
11325,1008,739
11330,1009,730
11335,1033,728
11340,1051,727
11345,1063,721
11350,1071,720
11355,1088,715
11360,1086,710
11365,1102,704
11370,1114,704
11375,1112,707
11380,1134,701
11385,1140,698
11390,1154,696
11395,1156,696
11400,1157,701
11405,1163,690
11410,1166,698
11415,1177,698
11420,1181,698
11425,1178,694
11430,1182,703
11435,1188,703
11440,1204,704
11445,1191,707
11450,1189,706
11455,1177,712
11460,1187,720
11465,1187,712
11470,1191,723
11475,1181,724
11480,1182,731
11485,1168,731
11490,1169,738
11495,1173,741
11500,1161,747
11505,1169,753
11510,1156,760
11515,1153,766
11520,1160,769
11525,1154,778
11530,1141,781
11535,1139,786
11540,1142,792
11545,1136,793
11550,1140,806
11555,1121,810
11560,1127,811
11565,1125,815
11570,1107,823
11575,1106,830
11580,1117,832
11585,1119,840
11590,1098,844
11595,1106,850
11600,1110,850
11605,1098,856
11610,1096,854
11615,1095,861
11620,1087,863
11625,1087,869
11630,1090,864
11635,1081,871
11640,1070,871
11645,1084,871
11650,1074,873
11655,1082,879
11660,1078,874
11665,1073,878
11670,1060,877
11675,1060,878
11680,1059,878
11685,1052,874
11690,1049,873
11695,1042,871
11700,1042,874
11705,1029,871
11710,1019,873
11715,1006,874
11720,1013,875
11725,1005,868
11730,1003,870
11735,987,868
11740,979,865
11745,967,864
11750,964,864
11755,966,860
11760,939,859
11765,931,855
11770,921,852
11775,912,855
11780,914,850
11785,890,855
11790,882,847
11795,880,850
11800,865,844
11805,858,841
11810,837,846
11815,832,847
11820,820,845
11825,812,844
11830,797,841
11835,792,837
11840,784,837
11845,785,834
11850,780,839
11855,782,834
11860,756,830
11865,759,837
11870,749,829
11875,754,830
11880,750,828
11885,749,824
11890,757,830
11895,746,825
11900,751,824
11905,745,819
11910,754,821
11915,753,821
11920,762,813
11925,765,813
11930,769,816
11935,772,813
11940,787,809
11945,790,807
11950,805,800
11955,815,799
11960,819,795
11965,829,792
11970,842,788
11975,842,786
11980,862,778
11985,879,783
11990,890,774
11995,911,767
12000,911,764
12005,929,754
12010,929,750
12015,963,752
12020,972,743
12025,976,747
12030,1003,742
12035,1010,734
12040,1022,726
12045,1039,733
12050,1038,724
12055,1063,720
12060,1071,714
12065,1084,714
12070,1089,707
12075,1102,710
12080,1118,704
12085,1125,705
12090,1135,703
12095,1144,702
12100,1144,695
12105,1158,698
12110,1152,697
12115,1163,700
12120,1174,699
12125,1170,699
12130,1185,696
12135,1178,701
12140,1182,700
12145,1185,698
12150,1191,705
12155,1188,705
12160,1197,706
12165,1193,712
12170,1193,714
12175,1175,716
12180,1174,722
12185,1178,732
12190,1188,736
12195,1176,735
12200,1167,740
12205,1165,744
12210,1172,752
12215,1154,757
12220,1161,763
12225,1158,766
12230,1149,770
12235,1152,776
12240,1142,784
12245,1151,788
12250,1139,786
12255,1135,797
12260,1126,802
12265,1126,815
12270,1126,813
12275,1123,822
12280,1120,827
12285,1113,831
12290,1106,836
12295,1105,835
12300,1101,838
12305,1105,846
12310,1105,849
12315,1099,856
12320,1100,863
12325,1083,865
12330,1086,863
12335,1090,864
12340,1080,865
12345,1084,866
12350,1083,870
12355,1074,876
12360,1061,871
12365,1070,877
12370,1076,874
12375,1059,875
12380,1066,879
12385,1056,875
12390,1052,876
12395,1052,878
12400,1038,880
12405,1037,880
12410,1026,871
12415,1023,874
12420,1019,871
12425,1014,876
12430,1005,867
12435,995,871
12440,993,867
12445,991,867
12450,988,864
12455,968,861
12460,960,859
12465,949,859
12470,936,850
12475,922,853
12480,919,858
12485,909,849
12490,900,854
12495,890,852
12500,884,850
12505,871,847
12510,855,847
12515,854,845
12520,835,847
12525,838,848
12530,822,838
12535,812,837
12540,798,838
12545,796,841
12550,791,837
12555,785,835
12560,783,841
12565,765,835
12570,763,831
12575,758,828
12580,749,834
12585,755,832
12590,749,824
12595,744,831
12600,741,823
12605,745,818
12610,738,820
12615,754,817
12620,750,818
12625,761,820
12630,760,814
12635,772,806
12640,773,811
12645,782,805
12650,785,802
12655,799,800
12660,800,807
12665,812,799
12670,828,791
12675,823,782
12680,840,788
12685,861,779
12690,866,778
12695,874,776
12700,890,769
12705,904,766
12710,921,762
12715,934,756
12720,947,757
12725,956,749
12730,973,750
12735,985,739
12740,1003,742
12745,1011,731
12750,1023,730
12755,1033,725
12760,1046,722
12765,1063,719
12770,1079,715
12775,1087,706
12780,1099,716
12785,1103,706
12790,1118,704
12795,1127,704
12800,1138,701
12805,1147,698
12810,1151,694
12815,1156,696
12820,1167,699
12825,1170,699
12830,1180,698
12835,1174,690
12840,1183,701
12845,1178,695
12850,1179,699
12855,1188,703
12860,1188,707
12865,1188,707
12870,1187,703
12875,1186,714
12880,1186,715
12885,1188,722
12890,1187,725
12895,1182,725
12900,1168,732
12905,1179,734
12910,1164,743
12915,1167,752
12920,1167,748
12925,1163,755
12930,1150,763
12935,1148,765
12940,1149,773
12945,1134,779
12950,1147,785
12955,1144,791
12960,1135,800
12965,1128,800
12970,1135,804
12975,1125,809
12980,1119,821
12985,1117,826
12990,1113,828
12995,1113,830
13000,1110,835
13005,1109,835
13010,1108,847
13015,1103,851
13020,1103,851
13025,1090,856
13030,1096,862
13035,1102,867
13040,1100,858
13045,1084,863
13050,1082,868
13055,1083,873
13060,1069,870
13065,1081,874
13070,1077,878
13075,1081,878
13080,1062,875
13085,1061,872
13090,1073,879
13095,1057,874
13100,1047,880
13105,1043,877
13110,1052,876
13115,1036,872
13120,1025,872
13125,1026,872
13130,1016,874
13135,1012,873
13140,1003,870
13145,998,866
13150,987,862
13155,981,864
13160,975,868
13165,970,864
13170,965,859
13175,945,859
13180,939,859
13185,918,857
13190,925,856
13195,909,851
13200,887,844
13205,890,848
13210,871,842
13215,874,848
13220,860,842
13225,852,845
13230,836,840
13235,828,844
13240,814,838
13245,818,842
13250,810,838
13255,800,842
13260,789,838
13265,782,834
13270,769,837
13275,775,837
13280,765,834
13285,763,833
13290,751,832
13295,753,832
13300,756,828
13305,753,829
13310,746,828
13315,747,821
13320,750,823
13325,754,820
13330,758,818
13335,752,822
13340,769,809
13345,770,814
13350,781,810
13355,785,806
13360,792,803
13365,792,808
13370,803,803
13375,809,797
13380,818,795
13385,833,791
13390,842,779
13395,861,782
13400,870,778
13405,888,777
13410,901,766
13415,915,767
13420,922,757
13425,941,762
13430,945,753
13435,953,748
13440,972,741
13445,993,741
13450,999,738
13455,1013,732
13460,1032,730
13465,1048,728
13470,1051,723
13475,1063,724
13480,1078,715
13485,1096,714
13490,1091,707
13495,1117,704
13500,1121,703
13505,1124,703
13510,1138,700
13515,1143,704
13520,1157,703
13525,1159,698
13530,1159,695
13535,1173,692
13540,1181,691
13545,1177,696
13550,1186,698
13555,1179,700
13560,1182,702
13565,1185,703
13570,1196,705
13575,1190,710
13580,1186,704
13585,1187,712
13590,1184,710
13595,1187,720
13600,1182,724
13605,1175,728
13610,1175,730
13615,1180,740
13620,1175,745
13625,1173,749
13630,1173,750
13635,1164,757
13640,1163,759
13645,1164,765
13650,1159,776
13655,1147,779
13660,1139,785
13665,1135,787
13670,1136,799
13675,1136,803
13680,1135,814
13685,1120,811
13690,1120,817
13695,1121,823
13700,1112,828
13705,1109,828
13710,1094,834
13715,1096,843
13720,1095,850
13725,1103,849
13730,1099,850
13735,1102,854
13740,1101,859
13745,1092,864
13750,1098,866
13755,1086,867
13760,1082,867
13765,1073,872
13770,1080,873
13775,1071,876
13780,1076,882
13785,1068,878
13790,1068,877
13795,1066,878
13800,1060,876
13805,1052,877
13810,1059,874
13815,1045,879
13820,1043,870
13825,1039,870
13830,1038,873
13835,1027,864
13840,1011,873
13845,1006,869
13850,1004,870
13855,993,870
13860,993,867
13865,987,857
13870,966,866
13875,962,864
13880,954,857
13885,936,861
13890,923,860
13895,917,855
13900,917,857
13905,912,851
13910,889,846
13915,889,846
13920,876,850
13925,858,852
13930,851,846
13935,849,845
13940,844,847
13945,825,842
13950,817,840
13955,818,839
13960,794,840
13965,786,840
13970,784,839
13975,774,838
13980,776,835
13985,768,834
13990,754,831
13995,754,838
14000,751,828
14005,755,830
14010,759,831
14015,749,823
14020,749,823
14025,738,817
14030,755,833
14035,756,821
14040,761,818
14045,759,815
14050,768,817
14055,766,810
14060,769,809
14065,791,800
14070,787,807
14075,786,801
14080,812,795
14085,823,789
14090,833,787
14095,851,784
14100,859,787
14105,858,780
14110,870,775
14115,881,765
14120,907,768
14125,915,768
14130,921,762
14135,937,761
14140,957,751
14145,972,744
14150,978,745
14155,1003,740
14160,1007,734
14165,1024,730
14170,1029,719
14175,1045,723
14180,1057,724
14185,1068,716
14190,1084,716
14195,1100,712
14200,1104,708
14205,1115,701
14210,1120,698
14215,1133,699
14220,1139,697
14225,1159,697
14230,1154,697
14235,1154,697
14240,1170,700
14245,1176,692
14250,1168,697
14255,1172,693
14260,1185,703
14265,1185,703
14270,1183,707
14275,1185,707
14280,1183,704
14285,1188,708
14290,1197,710
14295,1188,715
14300,1188,715
14305,1187,725
14310,1182,726
14315,1183,739
14320,1176,738
14325,1162,737
14330,1172,749
14335,1164,752
14340,1169,753
14345,1149,765
14350,1157,768
14355,1158,771
14360,1147,777
14365,1138,785
14370,1144,786
14375,1137,791
14380,1136,798
14385,1131,805
14390,1126,807
14395,1124,816
14400,1117,816
14405,1125,822
14410,1113,831
14415,1113,831
14420,1109,839
14425,1112,842
14430,1111,844
14435,1104,851
14440,1104,854
14445,1099,854
14450,1097,860
14455,1088,863
14460,1092,865
14465,1094,862
14470,1082,868
14475,1084,875
14480,1088,874
14485,1079,877
14490,1072,879
14495,1067,874
14500,1060,872
14505,1063,874
14510,1058,879
14515,1060,883
14520,1049,880
14525,1042,870
14530,1041,878
14535,1029,876
14540,1033,871
14545,1019,871
14550,1021,870
14555,1009,869
14560,1005,866
14565,1004,867
14570,987,861
14575,981,861
14580,962,865
14585,948,860
14590,951,858
14595,945,860
14600,937,859
14605,929,852
14610,912,851
14615,907,849
14620,893,845
14625,887,852
14630,865,854
14635,863,840
14640,856,845
14645,844,847
14650,833,846
14655,826,841
14660,812,840
14665,805,838
14670,806,838
14675,790,837
14680,781,836
14685,779,835
14690,766,832
14695,757,837
14700,752,834
14705,749,829
14710,751,835
14715,753,830
14720,753,826
14725,743,821
14730,758,828
14735,745,822
14740,756,823
14745,758,823
14750,757,826
14755,765,813
14760,754,812
14765,774,810
14770,777,812
14775,780,807
14780,790,801
14785,792,801
14790,804,800
14795,821,791
14800,829,793
14805,846,783
14810,849,783
14815,866,779
14820,882,776
14825,890,771
14830,902,766
14835,914,765
14840,925,758
14845,943,752
14850,964,751
14855,972,749
14860,980,744
14865,997,738
14870,1020,734
14875,1033,729
14880,1039,725
14885,1051,721
14890,1063,715
14895,1070,721
14900,1085,715
14905,1101,708
14910,1107,707
14915,1113,706
14920,1131,705
14925,1135,696
14930,1142,701
14935,1157,698
14940,1154,691
14945,1167,702
14950,1171,694
14955,1167,695
14960,1174,693
14965,1177,701
14970,1183,695
14975,1189,696
14980,1181,696
14985,1191,710
14990,1188,705
14995,1184,706
15000,1190,712
15005,1187,712
15010,1179,719
15015,1186,723
15020,1181,729
15025,1177,733
15030,1177,735
15035,1174,734
15040,1166,747
15045,1160,752
15050,1165,761
15055,1153,758
15060,1155,767
15065,1159,773
15070,1144,775
15075,1145,788
15080,1140,789
15085,1144,805
15090,1134,799
15095,1127,808
15100,1134,807
15105,1124,818
15110,1122,818
15115,1115,824
15120,1112,830
15125,1108,827
15130,1102,841
15135,1102,849
15140,1101,846
15145,1097,849
15150,1096,857
15155,1092,861
15160,1082,861
15165,1101,867
15170,1084,867
15175,1089,864
15180,1080,869
15185,1093,868
15190,1074,876
15195,1061,873
15200,1068,875
15205,1066,877
15210,1066,881
15215,1073,870
15220,1053,877
15225,1053,874
15230,1051,871
15235,1049,878
15240,1038,875
15245,1038,876
15250,1016,867
15255,1028,874
15260,1014,874
15265,1003,868
15270,986,864
15275,996,864
15280,979,867
15285,964,862
15290,972,863
15295,958,862
15300,951,858
15305,946,858
15310,928,856
15315,922,857
15320,910,850
15325,904,851
15330,897,855
15335,884,844
15340,870,852
15345,857,843
15350,845,844
15355,837,843
15360,829,835
15365,821,846
15370,814,844
15375,802,841
15380,792,843
15385,792,837
15390,782,834
15395,781,832
15400,767,827
15405,759,830
15410,754,832
15415,753,831
15420,749,833
15425,742,832
15430,750,826
15435,752,826
15440,744,830
15445,752,827
15450,747,821
15455,756,820
15460,759,818
15465,757,817
15470,760,813
15475,778,814
15480,783,807
15485,797,808
15490,795,799
15495,794,801
15500,812,795
15505,837,793
15510,828,786
15515,840,787
15520,857,789
15525,866,781
15530,891,779
15535,888,774
15540,905,767
15545,926,762
15550,940,755
15555,948,758
15560,965,749
15565,973,744
15570,991,739
15575,992,735
15580,1021,736
15585,1028,728
15590,1040,722
15595,1059,720
15600,1073,723
15605,1081,712
15610,1086,713
15615,1099,707
15620,1105,705
15625,1116,701
15630,1123,702
15635,1145,703
15640,1150,704
15645,1158,696
15650,1154,700
15655,1165,693
15660,1172,693
15665,1170,690
15670,1179,698
15675,1188,700
15680,1182,700
15685,1196,699
15690,1191,701
15695,1194,703
15700,1184,707
15705,1187,716
15710,1179,716
15715,1187,712
15720,1177,724
15725,1186,720
15730,1176,725
15735,1172,735
15740,1167,736
15745,1169,737
15750,1181,753
15755,1168,749
15760,1159,760
15765,1156,758
15770,1160,767
15775,1154,777
15780,1141,781
15785,1153,780
15790,1143,789
15795,1135,797
15800,1128,799
15805,1133,808
15810,1124,816
15815,1124,820
15820,1112,819
15825,1105,827
15830,1104,829
15835,1106,836
15840,1107,838
15845,1097,847
15850,1099,847
15855,1098,857
15860,1100,859
15865,1090,859
15870,1091,866
15875,1084,871
15880,1085,861
15885,1084,873
15890,1086,870
15895,1074,872
15900,1070,873
15905,1087,875
15910,1061,873
15915,1071,877
15920,1064,874
15925,1059,879
15930,1063,873
15935,1055,879
15940,1041,878
15945,1033,876
15950,1039,875
15955,1032,872
15960,1020,870
15965,1009,869
15970,1014,872
15975,994,866
15980,1002,865
15985,983,866
15990,986,858
15995,977,867
16000,966,863
16004,950,862
16010,947,858
16015,940,857
16020,923,852
16024,920,851
16030,912,845
16035,890,853
16040,885,844
16045,886,851
16050,862,847
16055,856,843
16059,843,849
16065,846,847
16070,825,841
16075,815,838
16079,807,838
16085,802,841
16090,807,838
16094,788,838
16100,786,837
16105,771,841
16110,767,833
16114,765,833
16120,756,834
16125,747,834
16129,756,829
16135,749,834
16140,747,828
16145,752,824
16149,750,828
16155,754,826
16160,744,820
16165,751,819
16170,762,821
16175,762,815
16180,759,819
16184,771,812
16190,776,807
16195,781,807
16200,797,800
16204,806,796
16210,809,793
16215,826,792
16219,839,792
16225,850,784
16230,859,779
16235,878,776
16239,880,772
16245,903,766
16250,905,766
16254,919,767
16260,942,759
16265,955,752
16270,967,753
16274,966,743
16280,991,741
16285,1004,736
16290,1020,742
16295,1030,728
16300,1049,724
16305,1055,719
16309,1066,716
16315,1074,720
16320,1088,708
16325,1098,709
16329,1110,709
16335,1114,706
16340,1127,701
16344,1139,698
16350,1151,702
16355,1149,699
16360,1160,697
16364,1161,696
16370,1175,702
16375,1174,690
16379,1179,698
16385,1177,694
16390,1190,702
16395,1179,699
16400,1193,701
16405,1199,706
16410,1180,708
16415,1188,713
16420,1182,717
16425,1181,722
16430,1185,714
16435,1174,723
16440,1183,727
16445,1171,738
16450,1174,743
16455,1168,745
16460,1166,745
16465,1174,753
16470,1160,756
16475,1160,761
16480,1155,769
16485,1149,774
16490,1144,782
16495,1142,782
16500,1130,789
16505,1135,799
16510,1123,802
16515,1123,806
16520,1121,810
16525,1126,816
16530,1118,828
16535,1121,829
16540,1114,830
16545,1106,838
16550,1108,846
16555,1103,848
16560,1103,846
16565,1101,857
16570,1100,853
16575,1096,866
16580,1087,865
16585,1104,868
16590,1084,871
16595,1078,871
16600,1085,873
16605,1083,874
16610,1074,877
16615,1071,881
16620,1072,875
16625,1069,880
16630,1065,877
16635,1056,876
16640,1059,877
16645,1053,876
16650,1040,873
16655,1039,873
16660,1038,872
16665,1027,877
16670,1027,870
16675,1007,867
16680,1020,872
16685,1002,865
16690,999,861
16695,991,863
16700,978,863
16705,969,862
16710,965,856
16715,950,858
16720,943,860
16725,930,856
16730,922,851
16735,915,854
16740,899,850
16745,898,856
16750,885,850
16755,869,844
16760,859,849
16765,847,848
16770,845,841
16775,839,843
16780,829,842
16785,816,843
16790,808,836
16795,803,844
16800,796,838
16805,775,838
16810,780,839
16815,768,835
16820,763,835
16825,761,831
16830,758,837
16835,757,829
16840,748,829
16845,749,824
16850,749,824
16855,753,827
16860,746,827
16865,747,820
16870,756,819
16875,747,827
16880,758,814
16885,765,812
16890,762,812
16895,778,809
16900,787,805
16905,794,802
16910,800,804
16915,801,795
16920,820,792
16925,827,790
16930,843,788
16935,852,785
16940,861,783
16945,887,777
16950,889,773
16955,908,773
16960,906,768
16965,932,764
16970,945,750
16975,960,755
16980,962,752
16985,989,747
16990,993,740
16995,1013,731
17000,1023,735
17005,1030,732
17010,1050,718
17015,1053,723
17020,1075,716
17025,1080,714
17030,1105,716
17035,1106,711
17040,1113,706
17045,1118,702
17050,1142,700
17055,1157,701
17060,1143,702
17065,1165,699
17070,1165,693
17075,1167,701
17080,1174,700
17085,1174,696
17090,1185,694
17095,1180,700
17100,1182,703
17105,1182,706
17110,1184,699
17115,1197,710
17120,1183,710
17125,1189,709
17130,1192,713
17135,1177,720
17140,1177,720
17145,1170,725
17150,1178,727
17155,1180,737
17160,1173,744
17165,1170,742
17170,1164,752
17175,1162,753
17180,1161,763
17185,1158,763
17190,1150,767
17195,1148,779
17200,1153,783
17205,1150,792
17210,1142,802
17215,1142,796
17220,1127,808
17225,1128,811
17230,1119,811
17235,1121,818
17240,1117,827
17245,1110,832
17250,1113,837
17255,1108,838
17260,1108,846
17265,1105,842
17270,1094,848
17275,1098,855
17280,1089,858
17285,1095,864
17290,1094,858
17295,1093,867
17300,1081,873
17305,1088,872
17310,1078,870
17315,1083,874
17320,1076,876
17325,1079,878
17330,1069,876
17335,1066,875
17340,1063,876
17345,1063,872
17350,1051,883
17355,1049,880
17360,1043,873
17365,1041,875
17370,1033,872
17375,1032,875
17380,1019,875
17385,1023,870
17390,1009,869
17395,1002,866
17400,988,868
17405,982,860
17410,980,866
17415,972,863
17420,949,855
17425,953,856
17430,935,861
17435,933,855
17440,920,850
17445,906,857
17450,894,855
17455,887,846
17460,885,854
17465,871,850
17470,862,845
17475,840,845
17480,844,843
17485,829,840
17490,820,845
17495,816,842
17500,800,840
17505,798,838
17510,792,835
17515,776,835
17520,771,840
17525,779,832
17530,768,831
17535,760,828
17540,769,831
17545,756,829
17550,755,821
17555,752,831
17560,755,822
17565,756,826
17570,749,825
17575,752,826
17580,750,816
17585,759,818
17590,757,817
17595,770,810
17600,768,817
17605,773,811
17610,784,809
17615,788,801
17620,790,792
17625,808,799
17630,820,791
17635,834,792
17640,845,783
17645,853,786
17650,871,775
17655,872,775
17660,890,771
17665,900,767
17670,912,763
17675,927,756
17680,954,758
17685,967,753
17690,970,748
17695,991,744
17700,1006,737
17705,1020,735
17710,1029,732
17715,1029,725
17720,1053,720
17725,1059,722
17730,1076,716
17735,1079,717
17740,1100,708
17745,1099,708
17750,1114,706
17755,1121,703
17760,1139,703
17765,1142,704
17770,1144,701
17775,1155,703
17780,1174,695
17785,1161,695
17790,1173,697
17795,1172,697
17800,1184,701
17805,1183,697
17810,1181,699
17815,1181,707
17820,1186,704
17825,1198,706
17830,1187,711
17835,1188,707
17840,1199,718
17845,1188,718
17850,1173,726
17855,1175,723
17860,1171,727
17865,1179,734
17870,1176,742
17875,1174,747
17880,1157,749
17885,1169,756
17890,1162,765
17895,1147,766
17900,1155,778
17905,1144,770
17910,1147,785
17915,1151,787
17920,1138,793
17925,1142,805
17930,1128,804
17935,1133,811
17940,1119,816
17945,1121,823
17950,1121,828
17955,1111,833
17960,1110,832
17965,1115,837
17970,1099,839
17975,1105,852
17980,1097,853
17985,1095,862
17990,1102,864
17995,1095,862
18000,1089,860
18005,1087,865
18010,1083,873
18015,1083,873
18020,1088,871
18025,1073,874
18030,1074,879
18035,1073,876
18040,1074,873
18045,1062,874
18050,1064,878
18055,1057,876
18060,1051,872
18065,1051,877
18070,1044,871
18075,1040,879
18080,1037,873
18085,1029,874
18090,1024,869
18095,1006,871
18100,1010,869
18105,993,871
18110,996,865
18115,988,864
18120,973,862
18125,976,861
18130,964,859
18135,944,862
18140,941,864
18145,928,857
18150,918,854
18155,904,850
18160,892,855
18165,886,846
18170,870,847
18175,871,849
18180,859,841
18185,852,848
18190,847,845
18195,834,839
18200,823,837
18205,808,845
18210,797,842
18215,799,839
18220,781,839
18225,780,836
18230,764,834
18235,764,830
18240,760,831
18245,759,836
18250,751,832
18255,752,830
18260,746,824
18265,747,826
18270,743,830
18275,747,830
18280,747,824
18285,755,822
18290,755,814
18295,755,819
18300,752,813
18305,765,808
18310,783,808
18315,782,800
18320,784,811
18325,793,806
18330,802,795
18335,812,794
18340,815,790
18345,826,786
18350,844,785
18355,853,781
18360,867,782
18365,881,777
18370,888,767
18375,901,769
18380,931,760
18385,940,760
18390,955,752
18395,963,748
18400,978,742
18405,990,741
18410,1001,736
18415,1013,732
18420,1028,729
18425,1041,725
18430,1055,721
18435,1071,722
18440,1073,712
18445,1097,710
18450,1105,708
18455,1102,702
18460,1120,704
18465,1122,704
18470,1146,696
18475,1151,701
18480,1146,702
18485,1157,700
18490,1176,694
18495,1168,696
18500,1163,697
18505,1189,696
18510,1171,697
18515,1192,698
18520,1184,702
18525,1185,697
18530,1197,706
18535,1178,713
18540,1189,715
18545,1189,717
18550,1183,713
18555,1180,723
18560,1193,723
18565,1179,732
18570,1184,736
18575,1175,735
18580,1174,741
18585,1170,742
18590,1164,756
18595,1161,756
18600,1161,762
18605,1158,763
18610,1147,768
18615,1145,782
18620,1141,789
18625,1151,793
18630,1143,795
18635,1130,803
18640,1125,810
18645,1121,813
18650,1126,817
18655,1123,823
18660,1124,827
18665,1116,837
18670,1114,838
18675,1109,841
18680,1097,848
18685,1102,847
18690,1096,851
18695,1095,863
18700,1094,859
18705,1095,864
18710,1080,862
18715,1085,870
18720,1083,866
18725,1077,867
18730,1078,872
18735,1078,877
18740,1074,872
18745,1070,872
18750,1058,876
18755,1059,877
18760,1061,880
18765,1053,875
18770,1048,874
18775,1056,875
18780,1046,876
18785,1043,878
18790,1033,871
18795,1021,875
18800,1015,867
18805,1019,869
18810,1001,868
18815,998,867
18820,990,861
18825,982,866
18830,976,866
18835,964,864
18840,953,859
18845,948,860
18850,932,857
18855,925,852
18860,910,857
18865,905,851
18870,896,849
18875,877,846
18880,881,845
18885,860,847
18890,863,846
18895,840,839
18900,837,846
18905,825,840
18910,823,836
18915,805,841
18920,806,837
18925,799,836
18930,785,837
18935,779,836
18940,775,837
18945,772,834
18950,759,832
18955,756,834
18960,761,829
18965,755,827
18970,750,827
18975,750,830
18980,745,826
18985,743,821
18990,742,823
18995,747,815
19000,748,821
19005,760,813
19010,761,816
19015,766,815
19020,772,807
19025,786,807
19030,789,800
19035,790,802
19040,808,790
19045,811,798
19050,824,791
19055,833,793
19060,857,784
19065,864,779
19070,877,776
19075,883,771
19080,899,773
19085,912,765
19090,932,761
19095,943,752
19100,952,756
19105,970,747
19110,982,740
19115,994,737
19120,1009,734
19125,1022,733
19130,1038,730
19135,1044,730
19140,1062,726
19145,1074,721
19150,1077,714
19155,1088,718
19160,1103,706
19165,1124,702
19170,1124,704
19175,1134,703
19180,1134,698
19185,1151,702
19190,1154,694
19195,1159,697
19200,1167,694
19205,1167,698
19210,1172,700
19215,1186,698
19220,1172,698
19225,1185,703
19230,1185,697
19235,1191,700
19240,1189,705
19245,1188,707
19250,1196,708
19255,1186,715
19260,1189,715
19265,1186,724
19270,1181,732
19275,1179,732
19280,1185,731
19285,1167,735
19290,1168,742
19295,1166,751
19300,1165,748
19305,1157,760
19310,1158,770
19315,1159,770
19320,1148,773
19325,1147,780
19330,1139,793
19335,1141,792
19340,1128,797
19345,1131,802
19350,1130,811
19355,1129,813
19360,1128,820
19365,1113,822
19370,1107,829
19375,1114,839
19380,1112,840
19385,1098,845
19390,1110,854
19395,1091,852
19400,1098,852
19405,1099,862
19410,1094,863
19415,1090,861
19420,1094,863
19425,1086,869
19430,1090,865
19435,1089,871
19440,1085,868
19445,1069,876
19450,1076,883
19455,1069,880
19460,1059,880
19465,1061,877
19470,1060,873
19475,1047,874
19480,1050,874
19485,1047,877
19490,1044,876
19495,1043,882
19500,1030,873
19505,1023,871
19510,1022,871
19515,1008,862
19520,1004,869
19525,993,867
19530,981,866
19535,988,864
19540,965,861
19545,964,856
19550,954,861
19555,944,858
19560,937,856
19565,917,859
19570,906,855
19575,903,849
19580,900,847
19585,881,847
19590,873,850
19595,870,846
19600,857,847
19605,846,846
19610,836,840
19615,819,846
19620,822,842
19625,803,844
19630,804,836
19635,786,838
19640,783,835
19645,775,844
19650,774,834
19655,763,837
19660,759,834
19665,759,832
19670,762,826
19675,746,830
19680,737,830
19685,746,825
19690,746,829
19695,752,826
19700,747,824
19705,756,820
19710,757,819
19715,755,812
19720,769,809
19725,770,812
19730,769,812
19735,778,808
19740,789,807
19745,794,801
19750,803,795
19755,811,800
19760,828,787
19765,845,789
19770,858,784
19775,860,786
19780,872,776
19785,891,770
19790,900,773
19795,914,760
19800,933,761
19805,947,756
19810,956,753
19815,977,751
19820,980,741
19825,1004,742
19830,1008,734
19835,1024,734
19840,1041,726
19845,1050,725
19850,1059,719
19855,1076,721
19860,1093,711
19865,1092,715
19870,1101,711
19875,1119,709
19880,1126,706
19885,1130,702
19890,1149,699
19895,1151,694
19900,1155,694
19905,1162,690
19910,1167,696
19915,1174,696
19920,1177,695
19925,1180,695
19930,1186,697
19935,1183,705
19940,1189,702
19945,1185,703
19950,1190,708
19955,1186,712
19960,1188,714
19965,1194,714
19970,1188,721
19975,1190,728
19980,1192,725
19985,1184,733
19990,1180,739
19995,1177,738
20000,1168,744
20005,1158,751
20010,1169,757
20015,1158,762
20020,1141,768
20025,1143,769
20030,1145,778
20035,1139,786
20040,1145,784
20045,1136,792
20050,1137,804
20055,1126,806
20060,1119,813
20065,1127,816
20070,1120,825
20075,1111,823
20080,1130,834
20085,1119,830
20090,1119,837
20095,1103,843
20100,1108,842
20105,1094,852
20110,1094,855
20115,1092,861
20120,1091,860
20125,1094,864
20130,1093,866
20135,1094,868
20140,1077,872
20145,1077,869
20150,1082,871
20155,1077,875
20160,1075,878
20165,1068,872
20170,1062,874
20175,1063,876
20180,1051,876
20185,1057,878
20190,1043,879
20195,1037,866
20200,1038,868
20205,1032,877
20210,1042,877
20215,1024,875
20220,1014,870
20225,1006,867
20230,1001,868
20235,984,866
20240,982,869
20245,980,864
20250,966,861
20255,954,857
20260,950,859
20265,934,857
20270,924,857
20275,923,860
20280,921,853
20285,901,850
20290,892,852
20295,879,849
20300,880,850
20305,862,846
20310,856,840
20315,840,839
20320,823,842
20325,818,841
20330,805,843
20335,812,840
20340,797,842
20345,788,835
20350,781,828
20355,776,833
20360,771,836
20365,771,836
20370,754,832
20375,752,838
20380,757,826
20385,757,837
20390,746,824
20395,746,831
20400,741,820
20405,743,832
20410,745,813
20415,747,816
20420,752,819
20425,760,814
20430,759,817
20435,775,811
20440,771,812
20445,786,807
20450,800,802
20455,793,799
20460,807,794
20465,827,796
20470,830,793
20475,845,789
20480,855,781
20485,867,785
20490,880,782
20495,896,768
20500,902,762
20505,920,753
20510,928,756
20515,940,757
20520,962,745
20525,974,748
20530,988,740
20535,1003,740
20540,1018,742
20545,1035,726
20550,1041,725
20555,1046,723
20560,1066,716
20565,1080,715
20570,1087,714
20575,1095,710
20580,1105,709
20585,1121,703
20590,1129,698
20595,1139,708
20600,1152,705
20605,1159,694
20610,1163,696
20615,1159,703
20620,1174,695
20625,1169,696
20630,1178,692
20635,1176,700
20640,1175,698
20645,1188,703
20650,1190,703
20655,1198,701
20660,1175,705
20665,1190,710
20670,1177,710
20675,1183,716
20680,1186,719
20685,1182,727
20690,1176,722
20695,1177,734
20700,1180,737
20705,1166,744
20710,1169,744
20715,1161,753
20720,1165,758
20725,1164,762
20730,1146,765
20735,1151,777
20740,1151,779
20745,1146,786
20750,1142,788
20755,1140,795
20760,1135,797
20765,1127,807
20770,1117,814
20775,1114,821
20780,1115,818
20785,1118,826
20790,1109,833
20795,1110,832
20800,1105,841
20805,1101,844
20810,1103,850
20815,1102,854
20820,1095,852
20825,1102,860
20830,1091,861
20835,1086,865
20840,1088,866
20845,1088,873
20850,1087,870
20855,1078,872
20860,1079,872
20865,1074,875
20870,1075,878
20875,1074,877
20880,1071,874
20885,1060,875
20890,1062,877
20895,1052,878
20900,1050,878
20905,1041,875
20910,1039,874
20915,1037,872
20920,1029,871
20925,1014,873
20930,1008,873
20935,1010,869
20940,999,867
20945,990,867
20950,985,870
20955,975,862
20960,960,859
20965,960,857
20970,942,859
20975,938,856
20980,934,863
20985,918,858
20990,910,854
20995,892,851
21000,880,852
21005,873,851
21010,871,851
21015,846,847
21020,855,841
21025,833,847
21030,823,836
21035,820,847
21040,819,839
21045,789,841
21050,790,840
21055,778,842
21060,776,836
21065,769,835
21070,761,837
21075,759,836
21080,750,840
21085,756,829
21090,751,828
21095,755,828
21100,753,827
21105,740,827
21110,752,821
21115,746,822
21120,749,817
21125,750,819
21130,753,817
21135,765,817
21140,761,814
21145,771,813
21150,787,807
21155,778,812
21160,795,802
21165,800,799
21170,820,802
21175,818,791
21180,829,780
21185,838,787
21190,857,782
21195,875,777
21200,882,778
21205,902,771
21210,909,767
21215,913,760
21220,938,759
21225,949,753
21230,970,753
21235,984,746
21240,990,741
21245,1008,741
21250,1014,736
21255,1028,729
21260,1038,724
21265,1056,725
21270,1062,716
21275,1080,725
21280,1095,715
21285,1097,716
21290,1106,711
21295,1116,708
21300,1134,704
21305,1140,702
21310,1148,699
21315,1155,692
21320,1155,694
21325,1168,697
21330,1171,696
21335,1174,694
21340,1176,698
21345,1180,701
21350,1185,698
21355,1195,705
21360,1181,703
21365,1187,705
21370,1177,706
21375,1191,709
21380,1192,713
21385,1192,714
21390,1188,721
21395,1189,728
21400,1173,729
21405,1184,733
21410,1173,736
21415,1166,739
21420,1163,746
21425,1162,753
21430,1157,760
21435,1152,762
21440,1158,769
21445,1149,771
21450,1149,786
21455,1144,786
21460,1141,793
21465,1130,796
21470,1134,798
21475,1141,809
21480,1131,812
21485,1120,816
21490,1115,820
21495,1115,831
21500,1118,837
21505,1098,836
21510,1114,848
21515,1107,845
21520,1109,848
21525,1099,855
21530,1107,854
21535,1088,861
21540,1088,862
21545,1084,865
21550,1088,863
21555,1078,865
21560,1080,868
21565,1078,871
21570,1074,871
21575,1079,875
21580,1067,874
21585,1069,877
21590,1068,875
21595,1059,876
21600,1059,878
21605,1055,875
21610,1049,874
21615,1042,867
21620,1028,874
21625,1031,873
21630,1020,872
21635,1011,873
21640,1008,867
21645,1002,865
21650,996,868
21655,986,870
21660,975,866
21665,976,859
21670,967,861
21675,956,852
21680,947,861
21685,928,856
21690,927,856
21695,927,859
21700,902,856
21705,898,850
21710,877,852
21715,881,849
21720,868,847
21725,845,845
21730,845,842
21735,832,845
21740,826,842
21745,816,841
21750,809,848
21755,803,838
21760,794,839
21765,787,841
21770,774,835
21775,767,839
21780,767,833
21785,757,832
21790,759,829
21795,753,834
21800,763,826
21805,752,831
21810,744,826
21815,751,828
21820,750,824
21825,752,819
21830,755,818
21835,750,815
21840,759,823
21845,768,812
21850,764,813
21855,772,806
21860,779,809
21865,788,805
21870,803,802
21875,811,800
21880,811,793
21885,825,791
21890,842,785
21895,842,783
21900,862,780
21905,869,785
21910,896,772
21915,900,767
21920,905,762
21925,931,756
21930,947,761
21935,954,753
21940,961,748
21945,989,741
21950,998,741
21955,1003,739
21960,1026,731
21965,1023,726
21970,1041,725
21975,1063,720
21980,1066,717
21985,1074,714
21990,1096,713
21995,1099,708
22000,1117,707
22005,1116,702
22010,1131,704
22015,1141,703
22020,1145,695
22025,1154,706
22030,1164,696
22035,1177,699
22040,1176,695
22045,1181,696
22050,1178,697
22055,1176,699
22060,1193,702
22065,1191,700
22070,1178,709
22075,1183,710
22080,1182,711
22085,1185,711
22090,1189,712
22095,1182,712
22100,1179,722
22105,1185,723
22110,1174,732
22115,1172,732
22120,1182,741
22125,1182,742
22130,1164,752
22135,1173,750
22140,1164,758
22145,1155,761
22150,1157,766
22155,1150,777
22160,1146,785
22165,1141,786
22170,1133,796
22175,1143,795
22180,1134,804
22185,1126,808
22190,1123,814
22195,1119,824
22200,1115,823
22205,1118,829
22210,1105,835
22215,1115,833
22220,1116,839
22225,1101,847
22230,1109,848
22235,1097,855
22240,1086,861
22245,1100,856
22250,1093,871
22255,1100,869
22260,1079,868
22265,1086,872
22270,1080,871
22275,1085,869
22280,1078,872
22285,1078,875
22290,1070,873
22295,1061,876
22300,1054,876
22305,1067,876
22310,1057,877
22315,1049,875
22320,1050,879
22325,1034,871
22330,1034,878
22335,1024,872
22340,1021,868
22345,1021,873
22350,1012,868
22355,998,870
22360,998,865
22365,993,860
22370,981,865
22375,974,864
22380,963,857
22385,955,864
22390,946,859
22395,930,855
22400,917,852
22405,913,851
22410,898,854
22415,891,844
22420,887,849
22425,872,845
22430,860,846
22435,848,843
22440,851,844
22445,830,844
22450,819,839
22455,819,837
22460,802,839
22465,802,845
22470,798,842
22475,779,834
22480,777,831
22485,776,836
22490,769,835
22495,772,835
22500,752,831
22505,748,828
22510,755,830
22515,752,826
22520,747,820
22525,751,820
22530,752,826
22535,744,823
22540,755,824
22545,753,819
22550,756,820
22555,772,814
22560,769,813
22565,783,808
22570,786,804
22575,792,802
22580,794,800
22585,820,792
22590,819,794
22595,830,790
22600,844,782
22605,857,783
22610,869,774
22615,872,773
22620,892,772
22625,895,766
22630,912,761
22635,930,760
22640,941,758
22645,955,752
22650,971,750
22655,977,738
22660,1007,742
22665,1018,729
22670,1026,732
22675,1027,724
22680,1055,727
22685,1063,720
22690,1071,716
22695,1084,709
22700,1094,712
22705,1109,713
22710,1110,702
22715,1124,702
22720,1128,699
22725,1142,708
22730,1145,698
22735,1159,694
22740,1160,699
22745,1166,698
22750,1172,695
22755,1176,695
22760,1190,697
22765,1181,698
22770,1184,700
22775,1181,699
22780,1189,707
22785,1191,704
22790,1201,714
22795,1194,715
22800,1181,710
22805,1183,723
22810,1184,725
22815,1182,729
22820,1182,731
22825,1169,737
22830,1179,737
22835,1171,744
22840,1166,743
22845,1159,754
22850,1154,762
22855,1157,761
22860,1151,769
22865,1150,778
22870,1150,784
22875,1136,784
22880,1127,800
22885,1136,802
22890,1133,811
22895,1136,816
22900,1129,810
22905,1122,824
22910,1124,827
22915,1122,828
22920,1112,832
22925,1110,836
22930,1108,846
22935,1108,850
22940,1093,845
22945,1093,858
22950,1099,860
22955,1100,860
22960,1095,861
22965,1086,866
22970,1092,864
22975,1084,868
22980,1074,874
22985,1077,875
22990,1073,870
22995,1070,873
23000,1070,871
23005,1069,880
23010,1061,869
23015,1055,877
23020,1052,876
23025,1040,876
23030,1048,873
23035,1043,876
23040,1039,879
23045,1025,870
23050,1026,868
23055,1006,871
23060,1005,872
23065,1004,867
23070,995,865
23075,988,866
23080,978,864
23085,967,859
23090,961,857
23095,939,858
23100,942,858
23105,931,858
23110,913,854
23115,915,853
23120,895,851
23125,889,852
23130,883,845
23135,870,849
23140,845,847
23145,855,844
23150,849,844
23155,831,840
23160,821,841
23165,813,847
23170,803,842
23175,790,846
23180,793,840
23185,779,837
23190,769,832
23195,777,836
23200,761,838
23205,772,836
23210,747,830
23215,765,833
23220,751,831
23225,743,825
23230,750,823
23235,747,823
23240,749,823
23245,754,820
23250,753,814
23255,757,818
23260,762,815
23265,762,814
23270,773,811
23275,782,812
23280,772,805
23285,795,802
23290,790,801
23295,814,789
23300,815,794
23305,835,790
23310,843,785
23315,867,782
23320,872,774
23325,882,769
23330,887,775
23335,903,762
23340,912,762
23345,940,759
23350,954,755
23355,959,751
23360,975,748
23365,987,739
23370,998,735
23375,1006,734
23380,1032,729
23385,1038,728
23390,1051,721
23395,1062,719
23400,1082,711
23405,1094,713
23410,1100,706
23415,1107,707
23420,1118,703
23425,1136,701
23430,1130,699
23435,1145,696
23440,1151,698
23445,1161,698
23450,1159,696
23455,1168,696
23460,1170,697
23465,1180,694
23470,1183,697
23475,1186,698
23480,1192,698
23485,1184,701
23490,1191,701
23495,1192,705
23500,1185,705
23505,1187,712
23510,1189,713
23515,1179,720
23520,1184,725
23525,1183,728
23530,1179,736
23535,1178,741
23540,1177,741
23545,1166,747
23550,1157,744
23555,1154,758
23560,1163,766
23565,1154,771
23570,1140,773
23575,1150,779
23580,1144,784
23585,1138,790
23590,1140,795
23595,1140,801
23600,1130,811
23605,1124,812
23610,1125,818
23615,1113,824
23620,1109,826
23625,1114,832
23630,1114,838
23635,1117,842
23640,1108,846
23645,1101,840
23650,1100,857
23655,1094,853
23660,1099,854
23665,1093,864
23670,1090,868
23675,1093,860
23680,1085,872
23685,1084,870
23690,1082,875
23695,1072,876
23700,1078,879
23705,1074,871
23710,1071,875
23715,1059,876
23720,1062,877
23725,1047,876
23730,1060,876
23735,1049,877
23740,1041,871
23745,1042,874
23750,1035,876
23755,1030,874
23760,1016,869
23765,1017,875
23770,1005,868
23775,996,872
23780,992,871
23785,976,868
23790,974,865
23795,970,863
23800,960,862
23805,941,854
23810,940,856
23815,929,851
23820,928,852
23825,905,859
23830,908,848
23835,886,848
23840,879,844
23845,865,848
23850,863,846
23855,850,840
23860,845,842
23865,825,848
23870,822,844
23875,810,842
23880,804,844
23885,793,839
23890,806,835
23895,776,838
23900,769,833
23905,765,836
23910,760,837
23915,753,830
23920,755,831
23925,752,830
23930,757,830
23935,754,826
23940,744,826
23945,745,824
23950,747,822
23955,750,820
23960,756,815
23965,755,818
23970,767,816
23975,766,813
23980,778,811
23985,775,808
23990,790,804
23995,794,804
24000,809,795
24005,821,795
24010,823,793
24015,830,791
24020,846,790
24025,862,781
24030,876,776
24035,885,772
24040,893,768
24045,908,766
24050,918,761
24055,935,756
24060,952,755
24065,965,744
24070,985,743
24075,994,739
24080,1000,739
24085,1009,734
24090,1033,726
24095,1044,725
24100,1052,729
24105,1070,719
24110,1078,711
24115,1090,711
24120,1106,709
24125,1117,705
24130,1125,709
24135,1134,702
24140,1137,702
24145,1144,699
24150,1160,701
24155,1154,696
24160,1166,696
24165,1172,695
24170,1177,696
24175,1180,696
24180,1173,699
24185,1184,694
24190,1188,699
24195,1191,704
24200,1179,705
24205,1196,705
24210,1180,711
24215,1198,714
24220,1181,716
24225,1177,717
24230,1176,728
24235,1181,730
24240,1179,735
24245,1174,733
24250,1174,740
24255,1165,745
24260,1159,755
24265,1167,758
24270,1161,763
24275,1157,773
24280,1148,770
24285,1152,776
24290,1139,792
24295,1141,795
24300,1138,795
24305,1124,806
24310,1124,811
24315,1120,815
24320,1124,815
24325,1119,820
24330,1117,824
24335,1110,838
24340,1113,840
24345,1109,843
24350,1104,843
24355,1095,851
24360,1104,851
24365,1098,858
24370,1098,865
24375,1100,864
24380,1092,867
24385,1080,869
24390,1087,866
24395,1084,874
24400,1077,874
24405,1081,876
24410,1074,878
24415,1077,879
24420,1063,878
24425,1071,876
24430,1066,875
24435,1058,873
24440,1056,878
24445,1056,874
24450,1038,879
24455,1032,876
24460,1039,875
24465,1022,869
24470,1017,874
24475,1020,866
24480,994,870
24485,990,866
24490,990,864
24495,976,866
24500,964,860
24505,961,863
24510,955,861
24515,939,858
24520,944,852
24525,923,857
24530,913,853
24535,905,851
24540,901,844
24545,893,851
24550,869,848
24555,862,846
24560,850,845
24565,846,847
24570,841,837
24575,827,840
24580,813,839
24585,804,836
24590,798,838
24595,788,836
24600,781,840
24605,771,836
24610,771,840
24615,762,834
24620,768,835
24625,749,831
24630,761,828
24635,751,831
24640,745,828
24645,742,829
24650,749,823
24655,759,825
24660,759,821
24665,753,822
24670,749,818
24675,767,816
24680,768,815
24685,761,809
24690,768,813
24695,778,810
24700,793,807
24705,797,800
24710,812,794
24715,812,790
24720,820,792
24725,839,784
24730,854,783
24735,867,779
24740,880,774
24745,896,774
24750,906,769
24755,922,763
24760,930,760
24765,940,751
24770,961,749
24775,971,749
24780,972,743
24785,1001,740
24790,1011,732
24795,1018,733
24800,1031,728
24805,1058,725
24810,1060,718
24815,1075,720
24820,1084,714
24825,1090,709
24830,1101,711
24835,1115,708
24840,1126,703
24845,1134,708
24850,1138,700
24855,1152,695
24860,1148,700
24865,1158,697
24870,1173,695
24875,1177,697
24880,1168,694
24885,1174,695
24890,1175,700
24895,1182,700
24900,1185,707
24905,1185,706
24910,1180,707
24915,1188,708
24920,1202,713
24925,1187,714
24930,1184,717
24935,1184,724
24940,1186,727
24945,1178,724
24950,1182,739
24955,1169,737
24960,1176,746
24965,1162,749
24970,1166,754
24975,1156,757
24980,1154,762
24985,1145,764
24990,1153,780
24995,1148,783
25000,1136,786
25005,1142,788
25010,1140,800
25015,1130,809
25020,1129,807
25025,1126,819
25030,1129,822
25035,1119,825
25040,1114,826
25045,1108,837
25050,1115,843
25055,1103,845
25060,1109,848
25065,1100,854
25070,1105,851
25075,1097,859
25080,1095,859
25085,1087,865
25090,1086,868
25095,1084,869
25100,1078,870
25105,1074,876
25110,1082,870
25115,1084,872
25120,1067,872
25125,1072,874
25130,1066,878
25135,1059,875
25140,1056,879
25145,1054,881
25150,1043,875
25155,1044,878
25160,1042,875
25165,1038,876
25170,1025,870
25175,1022,875
25180,1022,873
25185,1007,873
25190,1004,869
25195,991,864
25200,987,867
25205,973,862
25210,969,859
25215,959,864
25220,948,853
25225,943,853
25230,933,853
25235,917,853
25240,909,855
25245,904,850
25250,888,844
25255,888,849
25260,868,845
25265,865,849
25270,854,843
25275,841,845
25280,833,841
25285,823,838
25290,812,838
25295,819,835
25300,794,843
25305,793,836
25310,780,839
25315,767,840
25320,771,830
25325,776,829
25330,766,832
25335,764,832
25340,759,833
25345,748,830
25350,745,832
25355,746,828
25360,745,826
25365,748,825
25370,743,825
25375,750,815
25380,760,817
25385,754,826
25390,768,819
25395,777,809
25400,777,810
25405,781,804
25410,790,802
25415,800,808
25420,804,793
25425,816,795
25430,831,793
25435,843,779
25440,854,782
25445,857,781
25450,876,774
25455,885,772
25460,897,768
25465,921,757
25470,931,761
25475,942,753
25480,952,751
25485,961,750
25490,983,745
25495,991,742
25500,1013,735
25505,1015,733
25510,1040,730
25515,1044,728
25520,1055,722
25525,1079,716
25530,1081,717
25535,1104,711
25540,1109,709
25545,1124,705
25550,1135,702
25555,1129,702
25560,1140,700
25565,1150,695
25570,1155,695
25575,1163,694
25580,1165,702
25585,1169,701
25590,1178,694
25595,1174,699
25600,1185,701
25605,1183,702
25610,1190,708
25615,1179,706
25620,1184,707
25625,1188,708
25630,1190,710
25635,1186,714
25640,1191,718
25645,1185,723
25650,1178,730
25655,1181,731
25660,1184,735
25665,1167,738
25670,1169,742
25675,1174,757
25680,1165,758
25685,1157,760
25690,1160,775
25695,1150,771
25700,1150,783
25705,1138,788
25710,1140,791
25715,1136,791
25720,1137,803
25725,1126,802
25730,1138,814
25735,1125,819
25740,1116,818
25745,1121,830
25750,1109,835
25755,1112,839
25760,1105,843
25765,1110,842
25770,1102,846
25775,1100,854
25780,1099,852
25785,1096,854
25790,1086,855
25795,1099,864
25800,1082,867
25805,1085,873
25810,1083,875
25815,1086,871
25820,1077,876
25825,1073,872
25830,1075,881
25835,1069,878
25840,1063,874
25845,1052,878
25850,1056,872
25855,1053,876
25860,1047,869
25865,1054,879
25870,1036,872
25875,1026,874
25880,1026,872
25885,1019,876
25890,1019,873
25895,1013,867
25900,1006,871
25905,995,867
25910,986,862
25915,974,861
25920,971,864
25925,961,861
25930,958,852
25935,938,853
25940,922,860
25945,924,852
25950,911,853
25955,906,845
25960,885,848
25965,883,844
25970,867,848
25975,853,849
25980,851,844
25985,831,843
25990,827,843
25995,831,841
26000,814,845
26005,797,843
26010,796,842
26015,788,836
26020,785,838
26025,766,837
26030,767,838
26035,770,834
26040,764,830
26045,747,837
26050,755,826
26055,744,832
26060,754,835
26065,750,817
26070,745,828
26075,750,822
26080,750,822
26085,764,823
26090,754,815
26095,754,818
26100,762,813
26105,758,809
26110,771,804
26115,782,805
26120,790,803
26125,804,797
26130,809,795
26135,816,801
26140,837,789
26145,847,788
26150,846,781
26155,868,779
26160,879,772
26165,893,768
26170,903,764
26175,926,764
26180,930,758
26185,946,754
26190,959,749
26195,974,744
26200,989,739
26205,1012,738
26210,1014,733
26215,1020,726
26220,1041,726
26225,1055,723
26230,1067,715
26235,1080,711
26240,1086,710
26245,1090,709
26250,1109,703
26255,1119,708
26260,1119,700
26265,1132,701
26270,1150,694
26275,1148,698
26280,1156,697
26285,1172,698
26290,1163,699
26295,1173,696
26300,1178,699
26305,1175,696
26310,1178,701
26315,1182,705
26320,1186,699
26325,1188,710
26330,1189,705
26335,1178,712
26340,1186,716
26345,1177,722
26350,1182,717
26355,1176,719
26360,1175,725
26365,1181,728
26370,1177,740
26375,1171,741
26380,1171,744
26385,1156,755
26390,1156,758
26395,1164,769
26400,1162,772
26405,1148,784
26410,1147,781
26415,1150,787
26420,1146,787
26425,1137,796
26430,1124,802
26435,1126,806
26440,1125,812
26445,1121,822
26450,1118,824
26455,1113,825
26460,1114,836
26465,1100,842
26470,1110,840
26475,1108,851
26480,1096,850
26485,1102,851
26490,1100,856
26495,1098,860
26500,1096,862
26505,1090,869
26510,1088,863
26515,1081,868
26520,1082,868
26525,1081,874
26530,1075,879
26535,1071,874
26540,1079,878
26545,1074,879
26550,1060,880
26555,1061,877
26560,1063,879
26565,1054,876
26570,1046,878
26575,1040,881
26580,1032,875
26585,1041,870
26590,1016,876
26595,1019,869
26600,1010,871
26605,1007,873
26610,1003,869
26615,991,867
26620,986,859
26625,968,863
26630,963,858
26635,957,857
26640,939,853
26645,931,861
26650,925,852
26655,921,848
26660,908,848
26665,894,853
26670,887,848
26675,878,851
26680,871,852
26685,852,841
26690,851,845
26695,841,845
26700,822,841
26705,819,842
26710,807,840
26715,802,842
26720,801,841
26725,787,839
26730,784,838
26735,779,836
26740,771,837
26745,766,834
26750,747,833
26755,753,832
26760,752,827
26765,752,831
26770,742,822
26775,746,823
26780,753,822
26785,745,827
26790,751,822
26795,746,819
26800,753,818
26805,769,808
26810,772,811
26815,775,808
26820,778,809
26825,788,801
26830,793,805
26835,808,802
26840,813,794
26845,827,785
26850,829,786
26855,849,789
26860,864,781
26865,864,773
26870,891,773
26875,893,773
26880,905,769
26885,928,764
26890,935,757
26895,957,752
26900,964,746
26905,977,739
26910,990,740
26915,1004,741
26920,1016,733
26925,1021,727
26930,1043,724
26935,1065,722
26940,1061,723
26945,1066,712
26950,1094,708
26955,1098,709
26960,1103,706
26965,1125,709
26970,1131,705
26975,1140,703
26980,1141,698
26985,1165,701
26990,1158,698
26995,1164,694
27000,1166,702
27005,1175,692
27010,1178,695
27015,1178,697
27020,1180,698
27025,1187,698
27030,1188,701
27035,1199,703
27040,1189,717
27045,1186,706
27050,1184,715
27055,1182,721
27060,1177,723
27065,1180,721
27070,1177,730
27075,1177,733
27080,1176,741
27085,1177,744
27090,1179,747
27095,1167,749
27100,1157,759
27105,1150,758
27110,1159,764
27115,1155,773
27120,1151,784
27125,1151,784
27130,1134,789
27135,1140,802
27140,1128,806
27145,1122,807
27150,1133,814
27155,1123,814
27160,1113,822
27165,1113,827
27170,1107,834
27175,1105,836
27180,1104,842
27185,1103,849
27190,1103,850
27195,1102,854
27200,1097,859
27205,1092,862
27210,1092,862
27215,1089,868
27220,1086,867
27225,1076,869
27230,1092,868
27235,1077,871
27240,1077,876
27245,1066,875
27250,1064,877
27255,1062,876
27260,1058,879
27265,1062,878
27270,1060,878
27275,1052,877
27280,1054,870
27285,1043,873
27290,1033,874
27295,1045,876
27300,1022,876
27305,1017,874
27310,1010,870
27315,997,870
27320,1000,865
27325,998,867
27330,980,866
27335,977,863
27340,963,862
27345,949,861
27350,945,853
27355,933,856
27360,926,853
27365,916,851
27370,892,850
27375,894,852
27380,877,847
27385,868,846
27390,864,850
27395,849,848
27400,844,844
27405,828,843
27410,823,847
27415,815,840
27420,803,840
27425,797,838
27430,799,833
27435,782,836
27440,776,835
27445,769,838
27450,761,835
27455,760,831
27460,750,840
27465,748,835
27470,751,827
27475,751,824
27480,746,826
27485,751,820
27490,756,821
27495,751,826
27500,747,818
27505,754,818
27510,755,817
27515,770,813
27520,758,814
27525,783,809
27530,781,807
27535,799,800
27540,805,801
27545,813,794
27550,820,795
27555,831,788
27560,846,794
27565,849,784
27570,859,782
27575,878,776
27580,882,773
27585,904,769
27590,927,758
27595,931,758
27600,947,758
27605,953,757
27610,972,745
27615,984,742
27620,987,740
27625,1005,733
27630,1024,733
27635,1040,723
27640,1054,725
27645,1060,718
27650,1078,713
27655,1079,716
27660,1090,710
27665,1100,709
27670,1117,704
27675,1126,709
27680,1135,702
27685,1150,703
27690,1145,700
27695,1151,701
27700,1160,698
27705,1167,696
27710,1169,695
27715,1171,700
27720,1181,696
27725,1175,698
27730,1178,703
27735,1179,701
27740,1180,700
27745,1198,708
27750,1182,707
27755,1191,712
27760,1195,712
27765,1185,716
27770,1178,724
27775,1186,723
27780,1181,728
27785,1172,733
27790,1174,733
27795,1174,750
27800,1162,747
27805,1158,758
27810,1164,765
27815,1157,765
27820,1156,775
27825,1141,779
27830,1142,783
27835,1146,785
27840,1141,794
27845,1133,801
27850,1135,802
27855,1126,812
27860,1123,814
27865,1122,823
27870,1115,823
27875,1108,829
27880,1109,834
27885,1102,841
27890,1107,844
27895,1099,842
27900,1103,860
27905,1099,863
27910,1093,855
27915,1093,858
27920,1093,862
27925,1088,868
27930,1091,870
27935,1077,866
27940,1076,874
27945,1080,873
27950,1080,870
27955,1066,873
27960,1072,878
27965,1060,878
27970,1064,881
27975,1059,878
27980,1046,875
27985,1061,874
27990,1052,876
27995,1046,869
28000,1032,869
28005,1026,866
28010,1022,869
28015,1015,869
28020,1005,867
28025,995,871
28030,987,866
28035,976,865
28040,976,866
28045,978,866
28050,951,859
28055,952,856
28060,936,859
28065,932,854
28070,929,854
28075,906,854
28080,902,850
28085,890,852
28090,873,849
28095,877,850
28100,856,845
28105,850,846
28110,846,844
28115,843,839
28120,821,844
28125,811,837
28130,803,844
28135,791,837
28140,785,839
28145,781,838
28150,779,838
28155,766,835
28160,769,833
28165,760,834
28170,753,835
28175,756,832
28180,741,829
28185,750,829
28190,747,826
28195,753,822
28200,735,822
28205,755,826
28210,747,825
28215,759,813
28220,758,818
28225,758,809
28230,777,805
28235,768,811
28240,783,807
28245,802,797
28250,795,797
28255,818,790
28260,821,792
28265,829,794
28270,848,787
28275,865,791
28280,859,782
28285,888,769
28290,897,769
28295,901,772
28300,915,760
28305,927,761
28310,944,753
28315,957,750
28320,972,744
28325,983,742
28330,1002,738
28335,1012,731
28340,1027,730
28345,1039,733
28350,1051,727
28355,1057,724
28360,1071,716
28365,1089,711
28370,1102,710
28375,1103,709
28380,1115,703
28385,1124,703
28390,1141,700
28395,1140,693
28400,1156,703
28405,1159,699
28410,1163,700
28415,1165,693
28420,1170,697
28425,1165,692
28430,1177,700
28435,1182,694
28440,1189,699
28445,1182,699
28450,1188,702
28455,1195,710
28460,1190,706
28465,1199,712
28470,1181,716
28475,1187,720
28480,1179,721
28485,1174,731
28490,1176,730
28495,1179,735
28500,1175,738
28505,1158,744
28510,1166,753
28515,1164,755
28520,1162,766
28525,1160,764
28530,1152,778
28535,1156,782
28540,1140,784
28545,1137,790
28550,1121,801
28555,1129,807
28560,1125,807
28565,1129,813
28570,1121,818
28575,1120,820
28580,1119,829
28585,1119,830
28590,1108,839
28595,1110,841
28600,1095,846
28605,1101,846
28610,1097,856
28615,1089,860
28620,1093,858
28625,1095,862
28630,1097,862
28635,1088,866
28640,1086,864
28645,1086,870
28650,1081,871
28655,1076,871
28660,1071,874
28665,1070,879
28670,1074,879
28675,1064,875
28680,1052,879
28685,1056,881
28690,1059,873
28695,1048,874
28700,1041,876
28705,1036,874
28710,1031,873
28715,1033,871
28720,1022,874
28725,1015,870
28730,1010,870
28735,995,865
28740,993,867
28745,987,865
28750,970,858
28755,959,861
28760,955,857
28765,943,858
28770,937,855
28775,922,856
28780,918,853
28785,907,854
28790,902,854
28795,888,851
28800,886,849
28805,870,845
28810,863,846
28815,857,845
28820,833,845
28825,828,843
28830,827,841
28835,813,840
28840,804,841
28845,792,835
28850,783,834
28855,778,833
28860,775,844
28865,775,835
28870,764,834
28875,760,829
28880,756,835
28885,754,829
28890,739,830
28895,752,830
28900,753,826
28905,757,824
28910,746,820
28915,742,820
28920,751,816
28925,755,821
28930,769,813
28935,763,812
28940,772,810
28945,783,809
28950,794,804
28955,788,800
28960,805,793
28965,813,798
28970,827,793
28975,841,789
28980,844,787
28985,860,777
28990,873,772
28995,876,772
29000,895,771
29005,905,761
29010,929,761
29015,934,756
29020,950,753
29025,962,751
29030,977,743
29035,992,744
29040,1007,739
29045,1011,733
29050,1031,729
29055,1040,723
29060,1051,722
29065,1068,721
29070,1080,718
29075,1094,709
29080,1092,712
29085,1107,708
29090,1123,707
29095,1122,703
29100,1134,705
29105,1148,703
29110,1147,700
29115,1157,698
29120,1161,696
29125,1176,696
29130,1176,697
29135,1170,696
29140,1187,697
29145,1178,693
29150,1184,696
29155,1195,702
29160,1188,709
29165,1190,705
29170,1192,709
29175,1182,717
29180,1182,718
29185,1189,718
29190,1181,727
29195,1178,729
29200,1186,736
29205,1175,739
29210,1173,743
29215,1168,747
29220,1169,751
29225,1161,760
29230,1157,760
29235,1160,768
29240,1147,775
29245,1147,778
29250,1151,782
29255,1139,793
29260,1139,796
29265,1138,801
29270,1124,807
29275,1126,812
29280,1118,817
29285,1122,825
29290,1115,826
29295,1117,832
29300,1109,841
29305,1109,839
29310,1104,848
29315,1098,850
29320,1099,851
29325,1093,856
29330,1094,863
29335,1090,860
29340,1090,868
29345,1088,862
29350,1085,868
29355,1084,871
29360,1076,869
29365,1073,877
29370,1081,876
29375,1075,881
29380,1070,875
29385,1055,874
29390,1060,875
29395,1057,878
29400,1047,880
29405,1044,877
29410,1046,875
29415,1038,871
29420,1043,879
29425,1031,869
29430,1020,868
29435,1011,867
29440,1001,870
29445,989,868
29450,1000,860
29455,978,866
29460,972,862
29465,974,858
29470,963,860
29475,944,858
29480,939,854
29485,924,853
29490,910,854
29495,905,849
29500,885,852
29505,885,851
29510,882,847
29515,871,844
29520,865,847
29525,841,846
29530,845,845
29535,827,845
29540,821,844
29545,816,836
29550,800,840
29555,787,837
29560,786,831
29565,779,834
29570,767,835
29575,756,828
29580,762,834
29585,756,828
29590,766,834
29595,754,829
29600,751,826
29605,745,830
29610,750,825
29615,754,828
29620,758,827
29625,754,820
29630,753,819
29635,763,813
29640,766,810
29645,769,809
29650,775,811
29655,778,808
29660,792,793
29665,797,799
29670,803,797
29675,817,798
29680,827,786
29685,840,787
29690,844,784
29695,846,779
29700,869,776
29705,888,773
29710,893,772
29715,904,767
29720,931,762
29725,940,750
29730,960,754
29735,970,750
29740,978,745
29745,994,740
29750,1000,733
29755,1022,727
29760,1033,733
29765,1052,724
29770,1063,718
29775,1071,717
29780,1076,714
29785,1087,715
29790,1103,702
29795,1109,707
29800,1123,707
29805,1133,706
29810,1135,701
29815,1150,698
29820,1149,692
29825,1163,692
29830,1159,695
29835,1174,699
29840,1184,696
29845,1182,704
29850,1175,693
29855,1179,701
29860,1178,695
29865,1186,705
29870,1181,708
29875,1183,706
29880,1197,712
29885,1180,715
29890,1184,719
29895,1190,723
29900,1178,726
29905,1184,729
29910,1183,732
29915,1182,740
29920,1173,743
29925,1164,751
29930,1162,753
29935,1161,760
29940,1153,763
29945,1147,767
29950,1149,776
29955,1152,785
29960,1146,787
29965,1138,796
29970,1130,796
29975,1129,804
29980,1134,809
29985,1126,814
29990,1121,816
29995,1110,825
