timestamp_ms,ir_finger,ir_toe
0,1038,777
5,1059,769
10,1067,768
15,1076,767
20,1081,763
25,1096,762
30,1100,761
35,1111,757
40,1112,754
45,1126,753
50,1130,757
55,1140,752
60,1149,753
65,1144,748
70,1171,746
75,1152,744
80,1169,746
85,1174,740
90,1174,740
95,1183,737
100,1187,741
105,1189,737
110,1183,740
115,1182,734
120,1186,739
125,1184,734
130,1189,740
135,1193,739
140,1176,739
145,1182,737
150,1186,739
155,1176,738
160,1184,743
165,1181,739
170,1166,743
175,1179,749
180,1172,745
185,1166,744
190,1159,747
195,1169,750
200,1167,757
205,1150,752
210,1152,757
215,1155,760
220,1149,764
225,1147,764
230,1138,766
235,1139,766
240,1126,772
245,1129,778
250,1114,778
255,1126,788
260,1124,786
265,1116,786
270,1113,790
275,1118,796
280,1120,793
285,1109,800
290,1108,804
295,1098,804
300,1096,810
305,1097,811
310,1105,809
315,1095,815
320,1090,818
325,1089,822
330,1088,820
335,1081,829
340,1079,825
345,1086,825
350,1077,829
355,1084,828
360,1069,838
365,1084,836
370,1065,838
375,1068,839
380,1062,844
385,1063,835
390,1048,846
395,1058,843
400,1055,844
405,1039,847
410,1045,845
415,1037,851
420,1035,851
425,1021,842
430,1014,848
435,1016,849
440,1010,846
445,994,845
450,993,848
455,992,841
460,977,842
465,983,847
470,981,844
475,953,840
480,958,840
485,947,841
490,929,842
495,926,842
500,917,842
505,906,840
510,898,837
515,889,840
520,879,841
525,866,839
530,871,836
535,853,834
540,840,832
545,845,832
550,832,834
555,833,829
560,818,831
565,813,828
570,808,830
575,803,832
580,787,824
585,787,836
590,782,826
595,778,825
600,769,825
605,762,825
610,750,827
615,754,822
620,754,827
625,758,825
630,755,822
635,744,827
640,740,817
645,752,825
650,749,821
655,755,820
660,754,818
665,760,818
670,761,820
675,770,822
680,765,815
685,773,816
690,777,816
695,796,810
700,799,811
705,797,813
710,796,802
715,812,809
720,817,808
725,837,809
730,837,803
735,858,809
740,854,804
745,875,803
750,889,795
755,882,802
760,909,800
765,909,796
770,923,798
775,939,791
780,953,787
785,960,791
790,988,782
795,990,782
800,1011,776
805,1020,782
810,1025,781
815,1036,774
820,1049,769
825,1056,778
830,1065,768
835,1073,763
840,1080,771
845,1098,763
850,1105,760
855,1111,760
860,1128,756
865,1126,759
870,1131,758
875,1150,749
880,1151,743
885,1158,749
890,1167,745
895,1175,746
900,1165,741
905,1171,743
910,1177,745
915,1184,741
920,1187,740
925,1179,738
930,1181,733
935,1194,734
940,1191,737
945,1183,737
950,1178,739
955,1182,737
960,1185,736
965,1185,734
970,1184,745
975,1192,740
980,1182,745
985,1178,744
990,1178,744
995,1170,746
1000,1167,751
1004,1174,748
1010,1162,750
1014,1159,758
1020,1158,756
1025,1159,758
1030,1147,758
1035,1148,762
1040,1137,764
1045,1143,769
1050,1142,774
1055,1140,777
1060,1125,776
1065,1126,774
1070,1122,786
1075,1127,777
1080,1127,787
1085,1119,784
1090,1106,794
1095,1112,794
1100,1112,801
1105,1103,801
1110,1098,804
1115,1099,807
1120,1100,812
1125,1094,813
1130,1086,810
1135,1088,812
1140,1090,823
1145,1092,819
1150,1089,824
1155,1091,824
1160,1086,828
1165,1079,826
1170,1090,832
1175,1081,833
1180,1069,836
1185,1071,840
1190,1070,838
1195,1062,839
1200,1071,840
1205,1051,843
1210,1054,842
1215,1050,843
1220,1039,843
1225,1049,847
1230,1047,843
1235,1037,846
1240,1041,846
1245,1024,838
1250,1021,850
1255,1014,844
1260,1008,839
1265,999,841
1270,998,843
1275,983,849
1280,981,844
1285,975,843
1290,961,851
1295,950,842
1300,948,840
1305,940,842
1310,932,839
1315,927,841
1320,911,834
1325,910,837
1330,912,839
1335,890,837
1340,876,833
1345,881,837
1350,858,832
1355,865,832
1360,841,836
1365,841,835
1370,828,834
1375,814,835
1380,823,831
1385,806,827
1390,795,833
1395,791,831
1400,788,830
1405,789,826
1410,773,827
1415,763,825
1420,764,824
1425,762,829
1430,764,829
1435,750,822
1440,742,818
1445,760,827
1450,747,822
1455,749,822
1460,756,827
1465,738,817
1470,751,818
1475,743,816
1480,752,821
1485,760,819
1490,756,819
1495,764,815
1500,769,816
1505,781,817
1510,778,809
1515,782,809
1520,797,813
1525,795,814
1530,811,812
1535,826,808
1540,836,808
1545,832,806
1550,851,806
1555,859,805
1560,872,804
1565,879,803
1570,890,799
1575,911,798
1580,907,799
1585,929,792
1590,939,788
1595,944,792
1600,957,794
1605,975,783
1610,988,784
1615,996,783
1620,1007,778
1625,1018,779
1630,1034,774
1635,1043,777
1640,1052,772
1645,1063,771
1650,1075,767
1655,1089,767
1660,1091,758
1665,1099,759
1670,1119,757
1675,1115,757
1680,1120,753
1685,1138,754
1690,1142,749
1695,1148,750
1700,1159,749
1705,1156,746
1710,1160,745
1715,1170,746
1720,1178,739
1725,1168,746
1730,1175,734
1735,1184,736
1740,1181,740
1745,1183,736
1750,1189,739
1755,1187,734
1760,1193,730
1765,1189,733
1770,1189,736
1775,1185,739
1780,1180,738
1785,1189,737
1790,1183,743
1795,1182,737
1800,1180,739
1805,1174,737
1810,1179,746
1815,1175,745
1820,1170,750
1825,1168,743
1830,1172,755
1835,1158,752
1840,1155,750
1845,1157,757
1850,1149,755
1855,1146,765
1860,1151,766
1865,1139,764
1870,1143,771
1875,1132,776
1880,1134,777
1885,1130,779
1890,1127,786
1895,1125,781
1900,1117,786
1905,1121,789
1910,1116,795
1915,1117,797
1920,1116,798
1925,1107,802
1930,1108,809
1935,1106,811
1940,1092,806
1945,1103,812
1950,1099,818
1955,1089,820
1960,1090,820
1965,1083,824
1970,1076,829
1975,1081,829
1980,1075,824
1985,1086,831
1990,1077,835
1995,1077,834
2000,1080,841
2005,1070,836
2009,1071,844
2015,1067,841
2020,1065,843
2025,1062,845
2029,1055,838
2035,1056,846
2040,1037,843
2045,1037,841
2050,1037,847
2055,1035,844
2060,1030,846
2065,1024,844
2070,1013,844
2075,1014,849
2080,1006,849
2085,1000,844
2090,990,845
2095,993,849
2100,979,845
2105,974,848
2110,964,842
2115,947,837
2120,934,843
2125,931,843
2130,930,840
2135,930,841
2140,906,840
2145,909,840
2150,886,839
2155,885,838
2160,878,843
2165,870,837
2170,860,838
2175,852,833
2180,847,835
2185,832,834
2190,832,831
2195,830,825
2200,823,836
2205,816,827
2210,794,824
2215,792,825
2220,789,826
2225,769,823
2230,778,822
2235,768,830
2240,766,826
2245,768,826
2250,762,824
2255,755,825
2260,745,826
2265,745,822
2270,750,824
2275,748,829
2280,751,819
2285,748,819
2290,754,820
2295,751,811
2300,754,820
2305,761,811
2310,762,817
2315,768,815
2320,770,814
2325,777,810
2330,787,815
2335,792,813
2340,796,812
2345,810,809
2350,810,810
2355,816,805
2360,835,806
2365,851,807
2370,842,810
2375,863,797
2380,875,802
2385,871,796
2390,893,797
2395,907,793
2400,904,793
2405,931,793
2410,939,793
2415,951,791
2420,968,782
2425,982,780
2430,990,781
2435,995,779
2440,1004,779
2445,1031,778
2450,1033,778
2455,1053,772
2460,1064,772
2465,1069,771
2470,1084,763
2475,1093,761
2480,1090,758
2485,1102,762
2490,1118,762
2495,1125,754
2500,1131,753
2505,1140,753
2510,1145,750
2515,1145,752
2520,1166,747
2525,1163,741
2530,1171,744
2535,1168,745
2540,1181,744
2545,1174,741
2550,1173,738
2555,1182,740
2560,1188,733
2565,1185,733
2570,1190,737
2575,1182,732
2580,1186,734
2585,1187,736
2590,1186,735
2595,1199,742
2600,1179,741
2605,1185,737
2610,1190,738
2615,1180,740
2620,1169,736
2625,1177,749
2630,1172,748
2635,1170,752
2640,1169,751
2645,1171,748
2650,1164,752
2655,1161,756
2660,1153,756
2665,1156,759
2670,1154,763
2675,1143,769
2680,1144,767
2685,1135,766
2690,1134,772
2695,1139,776
2700,1130,774
2705,1127,782
2710,1122,785
2715,1123,787
2720,1118,791
2725,1118,791
2730,1101,793
2735,1116,797
2740,1123,802
2745,1099,806
2750,1100,799
2755,1101,813
2760,1090,813
2765,1094,812
2770,1089,812
2775,1099,816
2780,1096,823
2785,1105,827
2790,1081,829
2795,1073,827
2800,1078,831
2805,1080,834
2810,1084,830
2815,1080,835
2820,1073,839
2825,1069,835
2830,1058,834
2835,1059,840
2840,1053,840
2845,1057,841
2850,1062,845
2855,1040,845
2860,1039,851
2865,1043,847
2870,1026,844
2875,1032,844
2880,1030,846
2885,1018,844
2890,1013,848
2895,1004,850
2900,1001,849
2905,999,841
2910,996,848
2915,979,847
2920,971,845
2925,963,845
2930,959,843
2935,950,849
2940,938,840
2945,934,841
2950,921,836
2955,917,840
2960,908,840
2965,903,839
2970,900,832
2975,882,836
2980,875,839
2985,858,834
2990,854,835
2995,861,832
3000,835,835
3005,835,832
3010,826,827
3015,813,830
3020,807,829
3025,794,832
3030,791,828
3035,792,824
3040,785,821
3045,780,824
3050,772,827
3055,770,822
3060,763,827
3065,755,825
3070,759,827
3075,754,820
3080,748,820
3085,754,828
3090,756,826
3095,747,821
3100,746,820
3105,743,815
3110,747,822
3115,752,823
3120,760,817
3125,749,822
3130,760,817
3135,766,818
3140,782,817
3145,776,818
3150,777,813
3155,798,808
3160,801,812
3165,802,808
3170,812,810
3175,828,810
3180,833,806
3185,848,805
3190,852,806
3195,872,806
3200,870,797
3205,900,802
3210,893,798
3215,919,797
3220,910,789
3225,941,796
3230,948,791
3235,958,791
3240,973,786
3245,986,784
3250,998,784
3255,1002,782
3260,1016,780
3265,1025,779
3270,1037,773
3275,1049,769
3280,1061,773
3285,1068,768
3290,1076,766
3295,1086,762
3300,1102,764
3305,1102,764
3310,1120,761
3315,1126,758
3320,1138,752
3325,1136,752
3330,1146,747
3335,1153,750
3340,1165,745
3345,1156,747
3350,1165,744
3355,1169,741
3360,1177,740
3365,1176,741
3370,1176,739
3375,1181,738
3380,1184,735
3385,1193,735
3390,1188,740
3395,1189,735
3400,1192,740
3405,1187,741
3410,1194,733
3415,1189,738
3420,1186,741
3425,1190,735
3430,1183,739
3435,1185,750
3440,1179,739
3445,1180,741
3450,1173,745
3455,1162,748
3460,1162,752
3465,1166,758
3470,1158,753
3475,1152,756
3480,1152,757
3485,1147,769
3490,1150,768
3495,1147,766
3500,1136,763
3505,1137,773
3510,1133,773
3515,1132,774
3520,1132,781
3525,1118,782
3530,1124,782
3535,1116,781
3540,1116,787
3545,1117,791
3550,1117,791
3555,1108,795
3560,1115,805
3565,1104,803
3570,1097,810
3575,1093,812
3580,1096,812
3585,1099,820
3590,1092,823
3595,1090,819
3600,1086,821
3605,1090,828
3610,1090,826
3615,1083,828
3620,1088,828
3625,1074,829
3630,1078,833
3635,1071,836
3640,1080,836
3645,1078,838
3650,1070,834
3655,1058,839
3660,1054,845
3665,1050,841
3670,1055,844
3675,1047,850
3680,1044,846
3685,1046,844
3690,1040,843
3695,1029,843
3700,1014,844
3705,1026,844
3710,1010,842
3715,1004,846
3720,997,841
3725,994,849
3730,986,847
3735,975,838
3740,968,848
3745,956,839
3750,954,844
3755,946,842
3760,930,843
3765,929,840
3770,925,844
3775,904,838
3780,900,841
3785,891,836
3790,888,832
3795,881,832
3800,880,837
3805,854,834
3810,851,837
3815,844,833
3820,837,839
3825,824,831
3830,822,833
3835,816,829
3840,810,826
3845,802,828
3850,796,827
3855,779,827
3860,783,827
3865,776,825
3870,767,826
3875,768,822
3880,770,820
3885,760,820
3890,752,822
3895,748,819
3900,746,824
3905,749,819
3910,742,823
3915,748,822
3920,751,823
3925,741,823
3930,753,814
3935,756,820
3940,755,819
3945,759,817
3950,770,813
3955,773,817
3960,772,815
3965,784,809
3970,781,813
3975,806,813
3980,803,810
3985,806,809
3990,827,807
3995,824,808
4000,837,809
4005,852,807
4010,866,804
4014,875,805
4019,875,804
4025,889,800
4030,901,797
4035,909,796
4040,924,797
4045,931,793
4050,950,790
4054,960,791
4059,971,787
4065,985,776
4070,1000,781
4075,999,782
4080,1031,778
4085,1035,771
4090,1043,770
4094,1055,777
4100,1062,769
4105,1071,767
4110,1078,763
4115,1089,762
4120,1104,760
4125,1106,756
4130,1123,757
4135,1127,752
4140,1141,752
4145,1140,749
4150,1140,746
4155,1149,746
4160,1163,742
4165,1170,744
4170,1172,737
4175,1170,741
4180,1172,746
4185,1182,742
4190,1185,739
4195,1183,732
4200,1180,734
4205,1183,737
4210,1189,734
4215,1182,736
4220,1193,737
4225,1191,736
4230,1177,740
4235,1189,740
4240,1190,743
4245,1181,739
4250,1184,742
4255,1186,744
4260,1181,739
4265,1173,743
4270,1170,748
4275,1162,748
4280,1167,750
4285,1165,754
4290,1159,753
4295,1154,756
4300,1149,760
4305,1149,763
4310,1153,767
4315,1141,766
4320,1139,770
4325,1137,767
4330,1137,773
4335,1131,779
4340,1127,781
4345,1126,783
4350,1121,783
4355,1120,788
4360,1108,788
4365,1107,794
4370,1115,798
4375,1100,799
4380,1103,801
4385,1098,801
4390,1107,807
4395,1100,807
4400,1104,814
4405,1092,815
4410,1090,820
4415,1091,822
4420,1079,828
4425,1094,825
4430,1086,833
4435,1081,833
4440,1080,829
4445,1078,838
4450,1069,836
4455,1071,836
4460,1073,841
4465,1075,843
4470,1063,842
4475,1068,845
4480,1065,845
4485,1056,844
4490,1055,849
4495,1053,843
4500,1039,845
4505,1033,842
4510,1024,845
4515,1029,845
4520,1024,850
4525,1016,845
4530,1016,848
4535,996,844
4540,998,844
4545,1000,846
4550,980,844
4555,991,844
4560,971,842
4565,955,842
4570,951,847
4575,947,841
4580,925,843
4585,936,839
4590,919,837
4595,906,840
4600,899,835
4605,891,839
4610,891,839
4615,879,838
4620,863,835
4625,854,835
4630,845,833
4635,843,829
4640,833,833
4645,818,830
4650,811,825
4655,811,828
4660,797,825
4665,806,830
4670,790,829
4675,779,827
4680,778,832
4685,777,827
4690,774,827
4695,770,821
4700,757,826
4705,758,821
4710,752,822
4715,744,823
4720,750,819
4725,746,820
4730,743,819
4735,744,821
4740,749,819
4745,749,818
4750,747,821
4755,745,813
4760,753,814
4765,759,817
4770,768,817
4775,767,815
4780,786,814
4785,790,818
4790,792,809
4795,794,810
4800,805,808
4805,806,809
4810,826,804
4815,837,811
4820,846,807
4825,855,804
4830,869,800
4835,873,803
4840,876,799
4845,898,795
4850,912,797
4855,927,791
4860,938,793
4865,936,792
4870,956,793
4875,965,785
4880,981,784
4885,988,783
4890,997,784
4895,1016,776
4900,1031,776
4905,1038,776
4910,1051,771
4915,1066,770
4920,1067,776
4925,1076,764
4930,1096,763
4935,1107,763
4940,1108,754
4945,1121,754
4950,1124,752
4955,1131,757
4960,1139,751
4965,1143,748
4970,1151,748
4975,1149,749
4980,1160,744
4985,1168,741
4990,1177,746
4995,1172,742
5000,1171,739
5005,1181,740
5010,1188,745
5015,1189,738
5020,1188,737
5025,1183,735
5030,1190,738
5035,1181,741
5040,1186,737
5045,1203,737
5050,1180,738
5055,1185,737
5060,1193,744
5065,1183,738
5070,1172,742
5075,1174,742
5080,1171,743
5085,1177,742
5090,1173,744
5095,1168,747
5100,1174,753
5105,1163,751
5110,1168,754
5115,1159,756
5120,1160,759
5125,1144,761
5130,1147,766
5135,1150,766
5140,1138,769
5145,1141,770
5150,1137,776
5155,1132,774
5160,1125,782
5165,1116,784
5170,1113,789
5175,1111,796
5180,1118,793
5185,1117,797
5190,1106,800
5195,1098,802
5200,1101,807
5205,1105,809
5210,1101,810
5215,1096,809
5220,1098,819
5225,1101,817
5230,1083,817
5235,1094,820
5240,1086,823
5245,1081,823
5250,1081,828
5255,1088,823
5260,1083,834
5265,1079,834
5270,1082,840
5275,1075,838
5280,1070,837
5285,1066,840
5290,1062,838
5295,1054,847
5300,1055,840
5305,1046,842
5310,1051,845
5315,1044,847
5320,1041,839
5325,1027,841
5330,1033,843
5335,1021,842
5340,1020,843
5345,1012,849
5350,1013,845
5355,1005,847
5360,993,845
5365,976,839
5370,984,844
5375,981,845
5380,962,839
5385,968,841
5390,948,842
5395,941,842
5400,930,842
5405,915,840
5410,915,842
5415,897,839
5420,896,841
5425,880,838
5430,875,834
5435,867,835
5440,857,835
5445,852,831
5450,852,836
5455,850,831
5460,830,829
5465,824,830
5470,813,823
5475,808,832
5480,798,830
5485,791,829
5490,785,828
5495,778,823
5500,774,827
5505,769,829
5510,765,826
5515,762,822
5520,754,827
5525,756,823
5530,750,823
5535,753,824
5540,749,825
5545,741,819
5550,757,822
5555,747,818
5560,746,822
5565,752,817
5570,758,820
5575,764,817
5580,761,818
5585,769,817
5590,769,814
5595,769,818
5600,773,816
5605,788,813
5610,795,811
5615,799,814
5620,816,811
5625,828,812
5630,826,809
5635,835,810
5640,854,805
5645,854,806
5650,872,799
5655,883,803
5660,896,798
5665,901,799
5670,902,797
5675,924,794
5680,935,788
5685,950,789
5690,963,789
5695,975,787
5700,989,784
5705,1000,780
5710,1003,784
5715,1021,778
5720,1029,780
5725,1042,772
5730,1052,778
5735,1065,772
5740,1080,770
5745,1079,763
5750,1092,764
5755,1102,756
5760,1116,758
5765,1122,760
5770,1127,749
5775,1136,753
5780,1139,749
5785,1148,748
5790,1148,749
5795,1169,748
5800,1173,749
5805,1160,740
5810,1174,742
5815,1179,742
5820,1176,744
5825,1171,738
5830,1186,741
5835,1171,736
5840,1181,745
5845,1201,731
5850,1198,740
5855,1189,738
5860,1191,733
5865,1192,739
5870,1189,737
5875,1194,741
5880,1184,740
5885,1184,737
5890,1187,739
5895,1178,744
5900,1179,744
5905,1173,749
5910,1172,746
5915,1166,751
5920,1160,751
5925,1156,750
5930,1150,754
5935,1144,753
5940,1140,756
5945,1148,762
5950,1142,770
5955,1143,771
5960,1126,769
5965,1135,774
5970,1138,778
5975,1133,776
5980,1128,779
5985,1122,781
5990,1120,786
5995,1122,797
6000,1114,794
6005,1116,799
6010,1115,799
6015,1117,804
6020,1104,803
6025,1100,809
6030,1091,811
6035,1093,809
6040,1091,816
6045,1092,821
6050,1093,820
6055,1087,823
6060,1086,823
6065,1097,829
6070,1094,827
6075,1086,830
6080,1081,833
6085,1071,830
6090,1077,845
6095,1072,838
6100,1063,838
6105,1053,841
6110,1058,840
6115,1069,841
6120,1065,843
6125,1045,849
6130,1040,842
6135,1043,849
6140,1033,842
6145,1024,849
6150,1025,846
6155,1026,850
6160,1017,850
6165,1008,846
6170,1000,850
6175,991,849
6180,985,853
6185,981,845
6190,977,846
6195,963,845
6200,964,844
6205,956,840
6210,946,845
6215,938,841
6220,936,842
6225,921,845
6230,926,844
6235,908,837
6240,898,835
6245,886,837
6250,871,835
6255,872,829
6260,863,835
6265,854,839
6270,836,832
6275,831,833
6280,826,830
6285,827,832
6290,816,831
6295,803,821
6300,795,833
6305,788,829
6310,785,820
6315,786,822
6320,778,822
6325,774,824
6330,766,825
6335,758,824
6340,747,824
6345,761,826
6350,744,826
6355,751,821
6360,741,825
6365,746,822
6370,749,821
6375,754,823
6380,741,820
6385,757,818
6390,759,815
6395,762,815
6400,764,818
6405,764,813
6410,774,818
6415,771,816
6420,780,815
6425,799,811
6430,792,809
6435,813,813
6440,813,809
6445,830,813
6450,839,810
6455,848,803
6460,855,804
6465,865,807
6470,881,804
6475,884,800
6480,894,796
6485,911,796
6490,919,793
6495,928,791
6500,942,792
6505,958,792
6510,973,791
6515,976,783
6520,988,786
6525,995,784
6530,1014,777
6535,1019,776
6540,1033,772
6545,1038,781
6550,1062,772
6555,1058,768
6560,1083,766
6565,1087,762
6570,1098,760
6575,1104,759
6580,1109,756
6585,1128,756
6590,1130,759
6595,1129,751
6600,1145,753
6605,1150,750
6610,1154,747
6615,1155,744
6620,1161,742
6625,1174,742
6630,1173,738
6635,1168,742
6640,1178,746
6645,1183,748
6650,1177,742
6655,1187,737
6660,1183,736
6665,1193,734
6670,1189,736
6675,1191,735
6680,1193,733
6685,1195,741
6690,1192,740
6695,1174,740
6700,1186,743
6705,1182,738
6710,1175,742
6715,1183,746
6720,1172,741
6725,1167,748
6730,1165,747
6735,1159,750
6740,1161,750
6745,1153,747
6750,1159,759
6755,1150,757
6760,1147,763
6765,1150,766
6770,1144,767
6775,1143,765
6780,1142,773
6785,1139,773
6790,1124,776
6795,1124,780
6800,1120,782
6805,1122,790
6810,1120,791
6815,1108,796
6820,1107,794
6825,1115,797
6830,1104,796
6835,1113,805
6840,1100,809
6845,1092,811
6850,1100,804
6855,1090,813
6860,1095,819
6865,1096,826
6870,1081,825
6875,1088,825
6880,1095,830
6885,1086,830
6890,1087,837
6895,1079,835
6900,1075,837
6905,1069,834
6910,1073,836
6915,1068,839
6920,1075,841
6925,1065,845
6930,1059,843
6935,1057,840
6940,1045,846
6945,1044,850
6950,1045,843
6955,1033,851
6960,1027,848
6965,1030,843
6970,1028,842
6975,1021,841
6980,1012,843
6985,1003,847
6990,1006,846
6995,996,846
7000,993,845
7005,979,844
7010,964,841
7015,965,844
7020,972,846
7025,944,840
7030,943,839
7035,937,843
7040,925,840
7045,914,836
7050,902,836
7055,907,837
7060,887,837
7065,880,835
7070,867,836
7075,866,836
7080,850,823
7085,840,831
7090,841,833
7095,837,840
7100,827,831
7105,816,829
7110,804,830
7115,798,833
7120,794,825
7125,790,822
7130,780,829
7135,780,827
7140,770,825
7145,764,824
7150,760,822
7155,744,825
7160,750,825
7165,748,826
7170,745,824
7175,742,828
7180,746,823
7185,751,825
7190,754,820
7195,748,819
7200,749,823
7205,750,818
7210,762,815
7215,756,821
7220,766,818
7225,776,816
7230,773,812
7235,778,814
7240,797,811
7245,790,807
7250,796,818
7255,815,811
7260,819,810
7265,830,806
7270,843,806
7275,848,800
7280,855,805
7285,869,801
7290,869,798
7295,888,796
7300,909,794
7305,907,798
7310,926,794
7315,933,792
7320,951,792
7325,969,785
7330,982,785
7335,983,781
7340,998,781
7345,1006,785
7350,1011,781
7355,1035,774
7360,1038,779
7365,1063,777
7370,1059,767
7375,1071,771
7380,1088,768
7385,1094,758
7390,1106,761
7395,1112,754
7400,1122,758
7405,1130,754
7410,1140,751
7415,1140,748
7420,1139,746
7425,1149,746
7430,1157,742
7435,1170,746
7440,1157,739
7445,1172,742
7450,1178,741
7455,1176,738
7460,1184,742
7465,1180,733
7470,1192,744
7475,1187,737
7480,1189,737
7485,1181,738
7490,1189,736
7495,1191,731
7500,1188,739
7505,1192,738
7510,1182,733
7515,1186,737
7520,1185,737
7525,1178,738
7530,1174,742
7535,1163,749
7540,1170,742
7545,1178,744
7550,1164,751
7555,1164,750
7560,1169,752
7565,1152,755
7570,1160,761
7575,1151,757
7580,1146,765
7585,1147,764
7590,1146,766
7595,1134,768
7600,1129,772
7605,1131,781
7610,1133,778
7615,1121,783
7620,1117,785
7625,1118,780
7630,1115,790
7635,1110,796
7640,1120,795
7645,1109,798
7650,1110,803
7655,1106,807
7660,1103,806
7665,1093,815
7670,1096,816
7675,1105,816
7680,1095,817
7685,1086,823
7690,1082,823
7695,1092,826
7700,1081,826
7705,1089,826
7710,1081,829
7715,1073,828
7720,1075,835
7725,1073,840
7730,1074,842
7735,1060,833
7740,1068,845
7745,1063,837
7750,1065,847
7755,1050,844
7760,1059,845
7765,1044,845
7770,1037,844
7775,1039,845
7780,1025,850
7785,1028,844
7790,1023,847
7795,1021,851
7800,1009,846
7805,1012,847
7810,999,848
7815,986,848
7820,991,843
7825,976,842
7830,966,842
7835,969,842
7840,955,846
7845,943,845
7850,936,842
7855,933,836
7860,925,844
7865,915,838
7870,905,836
7875,900,833
7880,886,839
7885,884,835
7890,865,834
7895,863,834
7900,860,835
7905,846,832
7910,836,835
7915,821,830
7920,827,832
7925,817,838
7930,810,828
7935,800,824
7940,787,828
7945,784,832
7950,782,830
7955,775,827
7960,769,827
7965,761,826
7970,752,823
7975,748,820
7980,768,823
7985,749,826
7990,757,824
7995,743,821
8000,750,819
8005,744,816
8010,747,816
8015,749,817
8020,758,814
8025,762,814
8029,758,824
8035,764,813
8039,761,815
8045,767,815
8050,773,814
8055,782,817
8060,789,813
8064,796,810
8070,808,809
8074,819,813
8080,823,809
8085,835,810
8090,849,808
8095,856,810
8100,853,805
8105,870,797
8109,880,804
8115,897,798
8119,902,792
8125,910,798
8130,923,796
8135,948,791
8140,948,791
8145,975,794
8150,984,784
8154,985,786
8160,1005,780
8164,1015,779
8170,1033,780
8175,1039,772
8180,1047,766
8185,1057,774
8189,1066,763
8195,1083,764
8200,1081,766
8205,1100,763
8210,1106,757
8215,1114,750
8220,1122,754
8225,1140,760
8230,1139,752
8235,1145,753
8240,1143,752
8245,1155,748
8250,1164,750
8255,1159,747
8260,1168,746
8265,1182,742
8270,1174,742
8275,1181,739
8280,1179,737
8285,1189,736
8290,1180,735
8295,1184,736
8300,1190,739
8305,1189,735
8310,1187,738
8315,1194,733
8320,1189,735
8325,1181,743
8330,1179,733
8335,1188,739
8340,1180,739
8345,1176,744
8350,1182,748
8355,1172,742
8360,1172,750
8365,1165,743
8370,1165,747
8375,1157,751
8380,1165,752
8385,1161,760
8390,1154,759
8395,1146,767
8400,1141,764
8405,1139,767
8410,1144,768
8415,1138,769
8420,1130,771
8425,1123,784
8430,1125,781
8435,1131,778
8440,1125,790
8445,1123,794
8450,1120,791
8455,1114,794
8460,1112,801
8465,1115,802
8470,1105,807
8475,1105,804
8480,1098,813
8485,1098,809
8490,1102,815
8495,1087,812
8500,1093,815
8505,1095,826
8510,1088,824
8515,1085,828
8520,1079,827
8525,1088,832
8530,1079,830
8535,1082,834
8540,1075,831
8545,1082,835
8550,1067,837
8555,1060,844
8560,1066,845
8565,1062,841
8570,1064,843
8575,1055,840
8580,1050,846
8585,1052,844
8590,1042,848
8595,1031,845
8600,1028,841
8605,1026,847
8610,1018,852
8615,1010,840
8620,1020,842
8625,1001,845
8630,1002,846
8635,988,846
8640,976,844
8645,977,847
8650,973,842
8655,952,843
8660,952,845
8665,949,841
8670,934,840
8675,933,842
8680,910,836
8685,913,838
8690,899,837
8695,891,837
8700,888,840
8705,877,832
8710,872,833
8715,853,836
8720,841,838
8725,831,832
8730,825,832
8735,815,836
8740,813,828
8745,800,832
8750,803,828
8755,792,825
8760,790,828
8765,779,827
8770,778,828
8775,763,832
8780,765,828
8785,770,831
8790,762,821
8795,761,825
8800,747,827
8805,753,817
8810,744,824
8815,750,822
8820,742,820
8825,739,824
8830,745,818
8835,760,821
8840,753,819
8845,748,815
8850,763,815
8855,761,810
8860,763,817
8865,769,815
8870,780,817
8875,790,810
8880,786,811
8885,792,809
8890,808,806
8895,822,809
8900,827,810
8905,839,808
8910,847,804
8915,851,809
8920,868,806
8925,882,802
8930,891,798
8935,901,792
8940,911,794
8945,924,787
8950,918,792
8955,944,794
8960,957,789
8965,971,789
8970,978,788
8975,994,781
8980,1008,783
8985,1005,776
8990,1025,780
8995,1042,776
9000,1049,771
9005,1059,769
9010,1077,768
9015,1071,767
9020,1094,763
9025,1102,764
9030,1109,763
9035,1114,756
9040,1127,757
9045,1134,754
9050,1141,751
9055,1140,750
9060,1155,749
9065,1157,746
9070,1170,742
9075,1175,746
9080,1172,745
9085,1174,741
9090,1183,743
9095,1191,744
9100,1181,733
9105,1191,734
9110,1186,739
9115,1189,740
9120,1181,740
9125,1191,738
9130,1182,740
9135,1185,737
9140,1185,740
9145,1185,738
9150,1190,741
9155,1177,739
9160,1173,748
9165,1178,746
9170,1180,744
9175,1170,744
9180,1168,747
9185,1163,749
9190,1167,747
9195,1164,750
9200,1159,759
9205,1153,757
9210,1155,761
9215,1146,773
9220,1145,761
9225,1134,770
9230,1139,775
9235,1128,772
9240,1127,780
9245,1129,773
9250,1129,785
9255,1127,789
9260,1121,789
9265,1115,792
9270,1106,790
9275,1121,794
9280,1116,797
9285,1107,796
9290,1109,804
9295,1099,808
9300,1100,812
9305,1092,817
9310,1099,812
9315,1094,817
9320,1100,822
9325,1092,822
9330,1077,830
9335,1089,827
9340,1085,828
9345,1082,831
9350,1077,831
9355,1071,833
9360,1075,830
9365,1073,836
9370,1071,843
9375,1068,841
9380,1055,841
9385,1068,841
9390,1054,845
9395,1049,844
9400,1054,849
9405,1047,850
9410,1047,849
9415,1041,845
9420,1026,849
9425,1024,845
9430,1013,847
9435,1012,844
9440,1001,850
9445,995,846
9450,988,847
9455,988,841
9460,976,847
9465,962,851
9470,959,849
9475,959,845
9480,952,848
9485,937,839
9490,927,843
9495,917,843
9500,918,840
9505,910,836
9510,896,838
9515,891,841
9520,868,836
9525,875,835
9530,855,834
9535,848,834
9540,846,836
9545,837,833
9550,829,832
9555,820,829
9560,816,826
9565,805,828
9570,796,827
9575,790,830
9580,789,827
9585,773,826
9590,776,832
9595,764,831
9600,760,823
9605,754,826
9610,764,817
9615,753,827
9620,744,823
9625,753,824
9630,741,819
9635,750,828
9640,750,822
9645,745,815
9650,750,817
9655,756,820
9660,754,817
9665,753,818
9670,760,816
9675,773,814
9680,767,818
9685,772,810
9690,786,811
9695,787,812
9700,801,812
9705,806,812
9710,817,814
9715,818,806
9720,834,805
9725,840,804
9730,847,811
9735,866,805
9740,871,800
9745,877,801
9750,887,796
9755,908,797
9760,908,791
9765,920,794
9770,941,791
9775,956,788
9780,959,789
9785,979,783
9790,988,783
9795,1006,783
9800,1009,782
9805,1020,772
9810,1032,780
9815,1049,772
9820,1057,770
9825,1065,767
9830,1075,773
9835,1084,770
9840,1083,767
9845,1103,756
9850,1106,755
9855,1117,758
9860,1128,756
9865,1142,757
9870,1143,747
9875,1143,748
9880,1154,752
9885,1169,751
9890,1171,741
9895,1171,744
9900,1173,741
9905,1179,738
9910,1183,737
9915,1186,742
9920,1181,740
9925,1178,734
9930,1199,734
9935,1181,741
9940,1195,732
9945,1200,736
9950,1187,738
9955,1186,742
9960,1190,740
9965,1182,743
9970,1178,739
9975,1176,745
9980,1182,740
9985,1175,746
9990,1177,746
9995,1169,749
10000,1168,749
10005,1167,750
10010,1163,751
10015,1163,754
10020,1158,757
10025,1150,763
10030,1144,765
10035,1154,762
10040,1140,768
10045,1141,769
10050,1146,772
10055,1137,769
10060,1137,779
10065,1127,783
10070,1118,780
10075,1122,783
10080,1122,793
10085,1111,796
10090,1105,796
10095,1114,795
10100,1108,797
10105,1107,803
10110,1111,801
10115,1106,807
10120,1105,809
10125,1107,815
10130,1102,822
10135,1096,820
10140,1094,824
10145,1083,824
10150,1089,826
10155,1086,828
10160,1078,829
10165,1076,833
10170,1086,837
10175,1076,839
10180,1078,841
10185,1077,838
10190,1075,840
10195,1068,838
10200,1070,844
10205,1064,844
10210,1047,839
10215,1041,845
10220,1050,848
10225,1033,842
10230,1036,846
10235,1033,843
10240,1031,847
10245,1015,846
10250,1012,845
10255,1007,847
10260,997,841
10265,994,847
10270,989,848
10275,981,842
10280,966,841
10285,964,844
10290,961,845
10295,952,845
10300,940,841
10305,936,844
10310,926,839
10315,910,841
10320,912,839
10325,894,841
10330,895,834
10335,884,839
10340,881,834
10345,873,836
10350,854,838
10355,847,838
10360,838,830
10365,833,838
10370,827,833
10375,813,834
10380,802,832
10385,797,830
10390,796,826
10395,793,830
10400,778,825
10405,776,830
10410,775,831
10415,766,827
10420,758,829
10425,746,822
10430,753,824
10435,757,822
10440,747,820
10445,752,821
10450,748,825
10455,749,819
10460,742,824
10465,752,819
10470,751,816
10475,752,820
10480,758,824
10485,762,815
10490,772,816
10495,777,819
10500,771,817
10505,778,814
10510,781,813
10515,794,804
10520,801,808
10525,812,806
10530,818,813
10535,826,803
10540,836,805
10545,847,808
10550,859,804
10555,862,808
10560,870,801
10565,886,797
10570,893,795
10575,916,798
10580,922,795
10585,937,796
10590,944,789
10595,956,789
10600,962,793
10605,982,785
10610,996,778
10615,1008,784
10620,1011,776
10625,1028,777
10630,1044,777
10635,1046,765
10640,1064,770
10645,1073,773
10650,1070,768
10655,1089,764
10660,1103,766
10665,1105,762
10670,1110,760
10675,1124,755
10680,1122,757
10685,1136,754
10690,1149,747
10695,1156,746
10700,1161,744
10705,1161,748
10710,1165,742
10715,1167,743
10720,1175,740
10725,1177,741
10730,1187,737
10735,1175,746
10740,1181,734
10745,1185,742
10750,1187,739
10755,1194,736
10760,1180,742
10765,1186,737
10770,1189,739
10775,1179,740
10780,1185,740
10785,1184,728
10790,1181,740
10795,1173,744
10800,1172,744
10805,1170,744
10810,1169,747
10815,1168,746
10820,1166,741
10825,1164,746
10830,1157,749
10835,1165,753
10840,1161,753
10845,1152,759
10850,1147,755
10855,1153,759
10860,1152,762
10865,1136,772
10870,1130,775
10875,1133,775
10880,1129,776
10885,1120,779
10890,1123,783
10895,1123,784
10900,1120,793
10905,1121,792
10910,1120,797
10915,1114,797
10920,1113,804
10925,1108,801
10930,1104,810
10935,1104,804
10940,1098,813
10945,1088,810
10950,1089,815
10955,1089,823
10960,1089,817
10965,1085,824
10970,1092,822
10975,1085,829
10980,1076,833
10985,1092,830
10990,1088,834
10995,1072,837
11000,1070,837
11005,1062,835
11010,1068,841
11015,1062,845
11020,1060,848
11025,1056,845
11030,1052,845
11035,1044,846
11040,1052,844
11045,1034,847
11050,1038,845
11055,1031,846
11060,1027,851
11065,1028,841
11070,1013,843
11075,1011,842
11080,998,843
11085,994,848
11090,981,846
11095,980,843
11100,973,845
11105,969,844
11110,951,843
11115,961,845
11120,931,837
11125,930,838
11130,911,843
11135,911,840
11140,914,836
11145,899,835
11150,889,834
11155,875,840
11160,876,834
11165,871,842
11170,871,835
11175,851,831
11180,838,833
11185,829,834
11190,820,833
11195,808,834
11200,809,832
11205,791,825
11210,788,831
11215,783,830
11220,780,828
11225,773,828
11230,768,826
11235,762,825
11240,763,823
11245,758,825
11250,751,822
11255,751,826
11260,748,819
11265,749,821
11270,738,823
11275,747,818
11280,750,824
11285,742,823
11290,748,824
11295,745,819
11300,756,815
11305,751,815
11310,765,817
11315,758,816
11320,769,819
11325,788,812
11330,787,812
11335,789,811
11340,810,813
11345,816,812
11350,820,807
11355,826,810
11360,841,810
11365,852,806
11370,863,802
11375,882,802
11380,882,808
11385,893,794
11390,899,792
11395,914,797
11400,930,798
11405,935,792
11410,953,781
11415,966,790
11420,976,786
11425,984,784
11430,999,786
11435,1002,786
11440,1024,777
11445,1035,772
11450,1047,782
11455,1058,776
11460,1061,770
11465,1079,769
11470,1081,763
11475,1098,762
11480,1097,763
11485,1103,755
11490,1122,754
11495,1134,756
11500,1132,752
11505,1145,752
11510,1152,749
11515,1147,745
11520,1154,748
11525,1169,743
11530,1163,751
11535,1169,749
11540,1177,743
11545,1175,733
11550,1177,741
11555,1184,739
11560,1181,731
11565,1185,736
11570,1200,741
11575,1194,734
11580,1193,737
11585,1196,737
11590,1191,742
11595,1187,734
11600,1182,739
11605,1181,738
11610,1183,742
11615,1180,738
11620,1180,741
11625,1184,747
11630,1170,745
11635,1165,744
11640,1175,747
11645,1168,759
11650,1155,755
11655,1152,754
11660,1151,755
11665,1149,763
11670,1149,769
11675,1143,768
11680,1142,768
11685,1132,772
11690,1130,770
11695,1127,770
11700,1131,781
11705,1127,788
11710,1117,782
11715,1121,788
11720,1121,791
11725,1113,792
11730,1117,796
11735,1116,799
11740,1101,802
11745,1108,803
11750,1101,808
11755,1100,806
11760,1104,812
11765,1104,816
11770,1094,818
11775,1085,816
11780,1091,822
11785,1092,820
11790,1083,827
11795,1083,831
11800,1080,830
11805,1072,836
11810,1077,835
11815,1062,835
11820,1064,839
11825,1068,840
11830,1065,837
11835,1062,844
11840,1054,845
11845,1050,842
11850,1048,848
11855,1043,846
11860,1046,845
11865,1035,847
11870,1027,847
11875,1035,848
11880,1019,847
11885,1020,850
11890,1012,846
11895,1013,849
11900,1004,844
11905,993,843
11910,983,839
11915,977,843
11920,963,843
11925,955,845
11930,952,843
11935,937,844
11940,940,841
11945,927,842
11950,932,839
11955,915,845
11960,909,839
11965,895,839
11970,886,834
11975,873,833
11980,871,837
11985,859,838
11990,857,830
11995,844,832
12000,830,834
12005,826,833
12010,819,829
12015,815,837
12020,798,829
12025,798,825
12030,787,829
12035,782,827
12040,774,826
12045,769,828
12050,773,820
12055,760,830
12060,753,817
12065,757,826
12070,755,820
12075,741,818
12080,753,823
12085,747,825
12090,751,818
12095,757,824
12100,751,822
12105,758,824
12110,753,820
12115,753,820
12120,762,815
12125,766,820
12130,772,814
12135,773,818
12140,786,815
12145,787,812
12150,793,811
12155,797,811
12160,799,812
12165,818,807
12170,826,813
12175,831,802
12180,842,806
12185,854,801
12190,867,804
12195,879,801
12200,882,797
12205,892,796
12210,914,793
12215,921,789
12220,934,790
12225,948,789
12230,950,792
12235,967,789
12240,981,784
12245,988,782
12250,1003,777
12255,1013,782
12260,1023,776
12265,1036,770
12270,1049,770
12275,1053,771
12280,1072,768
12285,1070,769
12290,1081,763
12295,1104,761
12300,1104,756
12305,1120,760
12310,1123,757
12315,1124,754
12320,1140,756
12325,1143,749
12330,1149,748
12335,1152,749
12340,1161,743
12345,1171,741
12350,1172,738
12355,1176,746
12360,1179,740
12365,1180,739
12370,1177,740
12375,1194,740
12380,1191,742
12385,1194,738
12390,1189,732
12395,1188,735
12400,1178,741
12405,1185,736
12410,1192,738
12415,1176,741
12420,1168,743
12425,1177,737
12430,1185,746
12435,1177,745
12440,1179,743
12445,1163,748
12450,1160,746
12455,1158,747
12460,1168,746
12465,1164,753
12470,1154,754
12475,1159,749
12480,1153,759
12485,1149,762
12490,1144,764
12495,1142,767
12500,1138,765
12505,1138,769
12510,1128,775
12515,1124,779
12520,1119,780
12525,1120,783
12530,1120,787
12535,1122,792
12540,1111,789
12545,1110,795
12550,1113,796
12555,1099,803
12560,1106,803
12565,1099,804
12570,1105,811
12575,1098,812
12580,1103,808
12585,1098,823
12590,1098,817
12595,1087,819
12600,1094,826
12605,1085,823
12610,1089,825
12615,1079,834
12620,1075,835
12625,1073,839
12630,1076,831
12635,1068,836
12640,1070,837
12645,1065,840
12650,1063,838
12655,1050,842
12660,1062,841
12665,1051,845
12670,1056,848
12675,1042,844
12680,1037,848
12685,1043,849
12690,1027,847
12695,1026,851
12700,1027,851
12705,1015,846
12710,1010,841
12715,995,851
12720,994,848
12725,976,848
12730,983,846
12735,977,841
12740,969,842
12745,960,844
12750,949,835
12755,941,842
12760,933,841
12765,922,836
12770,919,833
12775,903,839
12780,902,836
12785,889,835
12790,876,838
12795,870,835
12800,864,838
12805,855,831
12810,854,829
12815,837,841
12820,839,831
12825,826,826
12830,811,834
12835,800,828
12840,796,831
12845,786,827
12850,795,827
12855,793,826
12860,775,824
12865,780,828
12870,772,826
12875,760,826
12880,766,823
12885,759,827
12890,749,826
12895,742,819
12900,745,823
12905,745,816
12910,741,821
12915,744,818
12920,750,814
12925,752,821
12930,746,824
12935,755,818
12940,753,817
12945,756,815
12950,772,818
12955,773,816
12960,783,810
12965,791,816
12970,793,813
12975,811,813
12980,802,808
12985,812,807
12990,827,806
12995,839,807
13000,848,804
13005,855,806
13010,866,801
13015,882,797
13020,893,801
13025,906,802
13030,911,798
13035,922,797
13040,939,791
13045,952,795
13050,966,787
13055,972,789
13060,993,782
13065,999,781
13070,1003,787
13075,1017,777
13080,1033,778
13085,1036,772
13090,1044,772
13095,1067,770
13100,1074,767
13105,1088,762
13110,1092,761
13115,1104,763
13120,1106,761
13125,1112,758
13130,1124,752
13135,1139,757
13140,1144,755
13145,1141,745
13150,1160,752
13155,1157,749
13160,1158,746
13165,1174,739
13170,1173,747
13175,1172,743
13180,1177,742
13185,1175,743
13190,1190,740
13195,1175,732
13200,1187,732
13205,1194,741
13210,1177,739
13215,1182,737
13220,1186,735
13225,1185,736
13230,1185,738
13235,1184,745
13240,1187,740
13245,1181,742
13250,1175,737
13255,1174,745
13260,1183,742
13265,1170,748
13270,1169,749
13275,1166,745
13280,1169,752
13285,1156,757
13290,1158,754
13295,1151,761
13300,1151,763
13305,1146,756
13310,1134,767
13315,1134,774
13320,1141,773
13325,1131,774
13330,1124,774
13335,1132,780
13340,1129,780
13345,1124,784
13350,1118,789
13355,1111,791
13360,1108,790
13365,1111,794
13370,1105,795
13375,1106,805
13380,1106,804
13385,1106,800
13390,1097,809
13395,1100,809
13400,1095,820
13405,1091,816
13410,1091,819
13415,1084,821
13420,1092,822
13425,1088,827
13430,1091,834
13435,1075,829
13440,1077,831
13445,1072,836
13450,1076,835
13455,1073,836
13460,1072,841
13465,1059,841
13470,1060,842
13475,1061,848
13480,1056,839
13485,1053,847
13490,1047,848
13495,1042,845
13500,1037,844
13505,1029,840
13510,1033,849
13515,1019,845
13520,1015,851
13525,1011,843
13530,1011,845
13535,992,847
13540,990,850
13545,976,841
13550,969,848
13555,971,844
13560,954,842
13565,949,842
13570,952,840
13575,925,843
13580,933,840
13585,923,839
13590,915,842
13595,908,834
13600,898,837
13605,882,838
13610,870,834
13615,869,839
13620,859,837
13625,843,834
13630,845,832
13635,831,827
13640,819,833
13645,824,837
13650,799,831
13655,806,834
13660,803,832
13665,786,827
13670,783,823
13675,777,824
13680,773,821
13685,774,822
13690,756,830
13695,761,823
13700,752,822
13705,749,822
13710,749,818
13715,753,823
13720,758,826
13725,749,826
13730,743,824
13735,744,820
13740,748,817
13745,753,822
13750,753,820
13755,744,816
13760,760,821
13765,765,812
13770,770,807
13775,778,817
13780,783,816
13785,780,811
13790,794,808
13795,804,810
13800,815,815
13805,821,813
13810,832,808
13815,840,807
13820,845,800
13825,860,800
13830,874,798
13835,884,801
13840,906,795
13845,909,797
13850,927,793
13855,924,795
13860,941,787
13865,958,790
13870,961,785
13875,976,791
13880,996,783
13885,1006,782
13890,1011,781
13895,1026,773
13900,1024,773
13905,1044,776
13910,1058,771
13915,1065,773
13920,1070,772
13925,1086,768
13930,1095,765
13935,1094,757
13940,1118,755
13945,1113,753
13950,1136,754
13955,1135,752
13960,1131,754
13965,1143,749
13970,1156,749
13975,1160,746
13980,1162,741
13985,1162,743
13990,1173,742
13995,1172,743
14000,1181,737
14005,1184,741
14010,1185,739
14015,1195,740
14020,1186,737
14025,1187,732
14030,1191,738
14035,1183,736
14040,1176,738
14045,1184,733
14050,1183,739
14055,1178,740
14060,1179,742
14065,1183,747
14070,1184,743
14075,1178,743
14080,1169,750
14085,1174,748
14090,1173,737
14095,1158,750
14100,1159,755
14105,1156,755
14110,1156,757
14115,1159,758
14120,1148,763
14125,1140,765
14130,1146,766
14135,1136,764
14140,1138,773
14145,1145,778
14150,1129,774
14155,1133,781
14160,1131,784
14165,1119,787
14170,1115,786
14175,1108,788
14180,1104,797
14185,1113,795
14190,1113,804
14195,1104,805
14200,1103,806
14205,1110,808
14210,1095,813
14215,1101,813
14220,1093,816
14225,1096,822
14230,1094,825
14235,1097,825
14240,1084,822
14245,1079,833
14250,1086,829
14255,1078,832
14260,1079,825
14265,1090,831
14270,1073,836
14275,1067,838
14280,1070,842
14285,1064,836
14290,1059,843
14295,1056,843
14300,1053,832
14305,1053,847
14310,1044,844
14315,1042,844
14320,1026,846
14325,1033,853
14330,1025,846
14335,1022,840
14340,1010,847
14345,1007,847
14350,1004,846
14355,996,844
14360,983,845
14365,983,841
14370,974,842
14375,963,840
14380,958,844
14385,948,839
14390,945,842
14395,934,846
14400,931,843
14405,912,840
14410,904,839
14415,892,837
14420,889,835
14425,875,837
14430,871,830
14435,871,834
14440,851,828
14445,846,831
14450,838,831
14455,827,829
14460,812,836
14465,816,825
14470,809,828
14475,804,827
14480,793,827
14485,786,826
14490,782,830
14495,785,823
14500,770,820
14505,766,822
14510,763,824
14515,762,821
14520,752,824
14525,752,821
14530,747,822
14535,753,819
14540,751,824
14545,744,821
14550,737,819
14555,741,814
14560,755,821
14565,746,824
14570,755,817
14575,761,822
14580,760,816
14585,773,820
14590,780,816
14595,789,815
14600,794,815
14605,796,818
14610,806,813
14615,810,805
14620,815,811
14625,829,808
14630,836,811
14635,851,806
14640,853,804
14645,870,800
14650,872,801
14655,887,802
14660,906,802
14665,913,796
14670,926,798
14675,923,792
14680,950,790
14685,952,787
14690,970,784
14695,993,786
14700,993,786
14705,1010,783
14710,1021,779
14715,1034,776
14720,1043,772
14725,1052,774
14730,1052,766
14735,1071,765
14740,1090,763
14745,1092,764
14750,1099,761
14755,1113,754
14760,1102,754
14765,1120,756
14770,1134,750
14775,1141,754
14780,1145,745
14785,1154,744
14790,1165,745
14795,1170,750
14800,1172,743
14805,1173,745
14810,1177,742
14815,1183,736
14820,1181,735
14825,1184,736
14830,1191,743
14835,1186,735
14840,1188,738
14845,1199,736
14850,1188,738
14855,1189,736
14860,1184,732
14865,1185,738
14870,1189,741
14875,1183,748
14880,1182,736
14885,1169,746
14890,1177,748
14895,1173,748
14900,1163,742
14905,1170,748
14910,1171,747
14915,1164,744
14920,1157,752
14925,1156,755
14930,1158,756
14935,1157,765
14940,1141,760
14945,1146,760
14950,1145,768
14955,1138,772
14960,1127,771
14965,1134,776
14970,1129,775
14975,1120,778
14980,1117,786
14985,1118,783
14990,1115,792
14995,1113,792
15000,1113,797
15005,1109,804
15010,1106,797
15015,1112,805
15020,1103,810
15025,1108,805
15030,1095,811
15035,1095,817
15040,1099,815
15045,1091,820
15050,1093,820
15055,1097,829
15060,1077,826
15065,1085,828
15070,1080,828
15075,1075,835
15080,1068,834
15085,1067,839
15090,1067,842
15095,1059,837
15100,1063,838
15105,1062,840
15110,1065,847
15115,1058,846
15120,1046,844
15125,1057,848
15130,1042,844
15135,1042,845
15140,1033,848
15145,1022,844
15150,1023,846
15155,1017,847
15160,1014,850
15165,992,849
15170,1005,845
15175,989,846
15180,988,846
15185,972,853
15190,966,839
15195,966,841
15200,956,843
15205,945,839
15210,949,842
15215,932,840
15220,924,837
15225,908,837
15230,907,840
15235,895,832
15240,885,837
15245,879,834
15250,872,838
15255,865,836
15260,855,840
15265,856,832
15270,831,838
15275,827,831
15280,820,830
15285,810,832
15290,802,831
15295,793,830
15300,781,829
15305,786,824
15310,774,824
15315,775,826
15320,773,820
15325,761,824
15330,761,822
15335,760,825
15340,758,824
15345,756,825
15350,748,822
15355,738,821
15360,748,820
15365,744,821
15370,741,820
15375,752,819
15380,756,821
15385,758,820
15390,749,816
15395,760,813
15400,770,817
15405,767,818
15410,782,815
15415,782,810
15420,792,813
15425,804,813
15430,801,812
15435,815,808
15440,828,808
15445,828,811
15450,841,807
15455,845,806
15460,861,802
15465,870,804
15470,882,797
15475,898,795
15480,905,799
15485,908,796
15490,935,793
15495,944,791
15500,963,789
15505,966,787
15510,982,786
15515,992,788
15520,998,777
15525,1010,781
15530,1019,779
15535,1031,775
15540,1046,772
15545,1058,769
15550,1067,769
15555,1081,769
15560,1088,767
15565,1097,761
15570,1101,760
15575,1112,759
15580,1123,758
15585,1125,756
15590,1143,754
15595,1139,747
15600,1142,745
15605,1154,747
15610,1164,739
15615,1174,749
15620,1162,743
15625,1180,737
15630,1178,739
15635,1176,743
15640,1187,742
15645,1181,733
15650,1189,737
15655,1190,738
15660,1182,736
15665,1185,732
15670,1192,729
15675,1196,738
15680,1190,734
15685,1195,743
15690,1184,735
15695,1190,741
15700,1183,737
15705,1175,743
15710,1171,752
15715,1170,747
15720,1161,744
15725,1170,749
15730,1168,748
15735,1152,757
15740,1157,757
15745,1153,751
15750,1152,760
15755,1152,755
15760,1159,762
15765,1145,764
15770,1141,768
15775,1138,773
15780,1135,774
15785,1121,779
15790,1127,779
15795,1128,787
15800,1122,787
15805,1122,787
15810,1116,790
15815,1118,794
15820,1115,798
15825,1116,799
15830,1104,803
15835,1104,801
15840,1102,810
15845,1099,812
15850,1081,813
15855,1089,816
15860,1086,821
15865,1088,819
15870,1079,827
15875,1078,832
15880,1071,828
15885,1096,832
15890,1076,833
15895,1080,834
15900,1073,833
15905,1075,836
15910,1070,834
15915,1076,837
15920,1068,841
15925,1059,842
15930,1055,842
15935,1051,847
15940,1045,842
15945,1047,848
15950,1047,842
15955,1031,845
15960,1027,845
15965,1030,844
15970,1014,848
15975,1015,850
15980,1018,844
15985,1001,848
15990,1003,846
15995,990,851
16000,979,848
16004,970,844
16010,978,843
16015,960,839
16020,954,843
16024,941,840
16030,937,843
16035,922,842
16040,916,840
16045,912,838
16050,903,838
16055,901,840
16059,878,840
16065,870,838
16070,864,831
16075,851,836
16079,853,835
16085,851,835
16090,838,835
16094,826,836
16100,813,826
16105,808,831
16110,804,823
16114,797,826
16120,789,833
16125,779,826
16129,771,828
16135,773,827
16140,767,824
16145,762,822
16149,762,826
16155,756,828
16160,754,820
16165,754,823
16170,749,821
16175,745,822
16180,750,822
16184,753,820
16190,749,820
16195,754,821
16200,752,816
16204,750,821
16210,762,822
16215,761,817
16219,774,812
16225,774,818
16230,781,811
16235,785,807
16239,782,815
16245,795,810
16250,803,805
16254,817,815
16260,828,805
16265,835,807
16270,849,811
16274,851,805
16280,871,805
16285,865,803
16290,888,798
16295,893,800
16300,910,795
16305,916,799
16309,936,796
16315,944,791
16320,961,790
16325,969,782
16329,983,779
16335,1003,787
16340,1005,780
16344,1012,778
16350,1018,773
16355,1036,777
16360,1051,773
16364,1054,770
16370,1071,768
16375,1073,768
16379,1096,760
16385,1108,759
16390,1102,761
16395,1114,758
16400,1123,760
16405,1128,757
16410,1148,755
16415,1135,748
16420,1146,744
16425,1155,748
16430,1165,742
16435,1164,745
16440,1171,742
16445,1179,737
16450,1178,744
16455,1187,739
16460,1178,737
16465,1183,737
16470,1183,736
16475,1192,732
16480,1186,738
16485,1196,741
16490,1190,742
16495,1189,741
16500,1187,741
16505,1186,738
16510,1183,739
16515,1186,743
16520,1181,742
16525,1181,741
16530,1173,745
16535,1175,747
16540,1167,752
16545,1161,745
16550,1164,750
16555,1150,749
16560,1157,761
16565,1150,759
16570,1158,761
16575,1152,757
16580,1140,764
16585,1140,769
16590,1144,765
16595,1127,770
16600,1129,777
16605,1124,782
16610,1127,779
16615,1125,783
16620,1119,790
16625,1120,789
16630,1117,790
16635,1119,794
16640,1117,802
16645,1102,805
16650,1101,804
16655,1096,810
16660,1111,805
16665,1097,809
16670,1093,816
16675,1092,819
16680,1099,822
16685,1090,819
16690,1095,825
16695,1079,832
16700,1074,829
16705,1084,830
16710,1082,841
16715,1079,832
16720,1068,837
16725,1084,833
16730,1063,841
16735,1059,842
16740,1067,836
16745,1067,836
16750,1050,840
16755,1047,843
16760,1046,851
16765,1047,846
16770,1039,847
16775,1024,844
16780,1024,845
16785,1026,842
16790,1018,848
16795,1018,844
16800,1012,849
16805,1008,844
16810,987,844
16815,992,845
16820,981,848
16825,977,842
16830,966,843
16835,957,844
16840,953,845
16845,947,836
16850,919,846
16855,917,840
16860,920,842
16865,909,838
16870,896,836
16875,889,835
16880,873,841
16885,876,836
16890,864,838
16895,853,833
16900,844,838
16905,830,831
16910,827,831
16915,818,828
16920,810,833
16925,808,829
16930,801,831
16935,788,831
16940,786,824
16945,780,827
16950,783,825
16955,761,823
16960,758,828
16965,761,820
16970,757,821
16975,751,826
16980,750,822
16985,757,821
16990,742,823
16995,750,814
17000,737,822
17005,740,825
17010,741,824
17015,751,821
17020,750,818
17025,760,819
17030,766,818
17035,772,817
17040,760,824
17045,777,809
17050,787,815
17055,785,815
17060,796,813
17065,809,812
17070,812,811
17075,823,806
17080,833,809
17085,837,810
17090,842,807
17095,863,803
17100,872,807
17105,878,802
17110,899,793
17115,899,802
17120,911,791
17125,920,796
17130,938,785
17135,943,791
17140,959,786
17145,976,791
17150,991,784
17155,1002,786
17160,1018,773
17165,1022,780
17170,1033,772
17175,1049,774
17180,1059,770
17185,1064,772
17190,1079,762
17195,1083,763
17200,1095,764
17205,1103,763
17210,1112,762
17215,1121,756
17220,1125,752
17225,1137,756
17230,1137,751
17235,1142,750
17240,1156,747
17245,1152,744
17250,1170,745
17255,1171,742
17260,1184,742
17265,1175,742
17270,1181,747
17275,1178,743
17280,1183,731
17285,1190,739
17290,1184,742
17295,1193,737
17300,1185,738
17305,1180,733
17310,1186,744
17315,1189,740
17320,1185,738
17325,1183,740
17330,1187,730
17335,1185,743
17340,1184,738
17345,1166,741
17350,1170,743
17355,1167,742
17360,1169,751
17365,1166,745
17370,1156,749
17375,1165,754
17380,1157,755
17385,1150,756
17390,1148,761
17395,1148,762
17400,1141,764
17405,1136,763
17410,1135,770
17415,1136,773
17420,1125,779
17425,1130,781
17430,1123,783
17435,1123,782
17440,1122,785
17445,1122,788
17450,1116,793
17455,1110,796
17460,1116,801
17465,1107,807
17470,1106,801
17475,1094,813
17480,1098,813
17485,1091,811
17490,1099,817
17495,1098,823
17500,1094,820
17505,1085,822
17510,1091,825
17515,1088,828
17520,1083,826
17525,1086,830
17530,1083,835
17535,1079,836
17540,1074,840
17545,1069,838
17550,1067,844
17555,1065,842
17560,1054,845
17565,1055,847
17570,1057,836
17575,1052,843
17580,1042,845
17585,1039,841
17590,1030,849
17595,1029,843
17600,1033,843
17605,1021,850
17610,1014,845
17615,1017,841
17620,998,850
17625,991,853
17630,994,844
17635,974,845
17640,977,846
17645,965,846
17650,965,839
17655,947,841
17660,941,840
17665,934,846
17670,921,838
17675,920,842
17680,923,841
17685,900,843
17690,892,835
17695,871,834
17700,881,834
17705,867,833
17710,865,838
17715,851,835
17720,841,833
17725,833,831
17730,822,831
17735,814,831
17740,814,827
17745,802,827
17750,793,829
17755,788,824
17760,782,830
17765,780,827
17770,767,825
17775,776,827
17780,756,824
17785,768,823
17790,765,821
17795,759,819
17800,749,830
17805,758,821
17810,745,821
17815,753,828
17820,749,820
17825,744,821
17830,754,822
17835,751,820
17840,751,817
17845,762,815
17850,771,818
17855,768,817
17860,776,824
17865,780,818
17870,785,815
17875,795,813
17880,794,810
17885,802,811
17890,812,805
17895,826,810
17900,823,808
17905,842,807
17910,851,809
17915,872,809
17920,876,801
17925,888,801
17930,897,798
17935,911,798
17940,926,796
17945,936,791
17950,938,789
17955,955,788
17960,968,791
17965,974,787
17970,995,785
17975,1002,783
17980,1009,781
17985,1025,776
17990,1034,770
17995,1051,778
18000,1055,773
18005,1068,771
18010,1077,765
18015,1092,759
18020,1104,760
18025,1102,754
18030,1118,758
18035,1123,756
18040,1128,751
18045,1143,760
18050,1140,749
18055,1151,748
18060,1167,744
18065,1166,747
18070,1162,741
18075,1172,744
18080,1177,741
18085,1181,740
18090,1183,735
18095,1183,736
18100,1189,741
18105,1182,740
18110,1183,736
18115,1191,735
18120,1182,734
18125,1182,733
18130,1185,736
18135,1188,740
18140,1185,743
18145,1179,745
18150,1179,746
18155,1183,739
18160,1171,743
18165,1183,741
18170,1176,744
18175,1166,752
18180,1170,750
18185,1171,750
18190,1162,754
18195,1152,748
18200,1151,760
18205,1149,754
18210,1146,764
18215,1145,762
18220,1137,768
18225,1134,767
18230,1129,776
18235,1126,777
18240,1128,782
18245,1129,785
18250,1126,788
18255,1118,784
18260,1116,789
18265,1119,794
18270,1115,791
18275,1118,792
18280,1100,801
18285,1103,799
18290,1103,808
18295,1102,807
18300,1093,807
18305,1093,817
18310,1095,817
18315,1095,821
18320,1088,820
18325,1091,825
18330,1094,821
18335,1081,830
18340,1085,833
18345,1074,831
18350,1074,834
18355,1080,835
18360,1072,837
18365,1065,836
18370,1077,836
18375,1070,842
18380,1060,846
18385,1055,845
18390,1046,845
18395,1052,841
18400,1034,842
18405,1037,843
18410,1030,841
18415,1037,849
18420,1027,848
18425,1015,850
18430,1017,850
18435,1007,842
18440,1002,845
18445,995,838
18450,995,842
18455,983,847
18460,979,841
18465,963,846
18470,961,841
18475,947,838
18480,945,841
18485,930,845
18490,916,834
18495,922,841
18500,903,835
18505,904,837
18510,888,835
18515,881,835
18520,877,839
18525,860,835
18530,857,836
18535,844,836
18540,848,836
18545,830,831
18550,819,830
18555,818,829
18560,799,829
18565,798,834
18570,793,826
18575,788,826
18580,791,830
18585,781,825
18590,766,826
18595,762,825
18600,762,828
18605,760,825
18610,754,821
18615,750,816
18620,749,821
18625,750,824
18630,745,816
18635,756,819
18640,741,824
18645,753,827
18650,746,819
18655,749,818
18660,764,816
18665,765,821
18670,767,816
18675,775,815
18680,785,819
18685,782,813
18690,780,816
18695,799,812
18700,806,813
18705,815,811
18710,832,807
18715,827,807
18720,841,811
18725,842,809
18730,851,806
18735,870,803
18740,876,805
18745,890,792
18750,899,801
18755,914,798
18760,922,796
18765,938,789
18770,953,793
18775,954,791
18780,981,790
18785,981,783
18790,994,783
18795,1001,775
18800,1009,779
18805,1028,776
18810,1041,776
18815,1048,774
18820,1063,769
18825,1071,762
18830,1084,770
18835,1093,764
18840,1096,758
18845,1114,760
18850,1113,753
18855,1117,754
18860,1130,757
18865,1140,750
18870,1144,749
18875,1151,747
18880,1156,747
18885,1159,746
18890,1162,740
18895,1171,738
18900,1178,741
18905,1177,738
18910,1181,738
18915,1185,742
18920,1185,734
18925,1195,731
18930,1185,740
18935,1188,738
18940,1193,735
18945,1187,739
18950,1200,735
18955,1194,738
18960,1188,736
18965,1188,737
18970,1176,742
18975,1179,740
18980,1179,742
18985,1168,745
18990,1170,740
18995,1167,748
19000,1164,751
19005,1162,758
19010,1156,749
19015,1159,754
19020,1157,761
19025,1143,761
19030,1150,768
19035,1141,760
19040,1145,767
19045,1145,776
19050,1134,775
19055,1135,773
19060,1123,777
19065,1123,782
19070,1131,783
19075,1121,793
19080,1121,796
19085,1117,792
19090,1112,799
19095,1111,799
19100,1096,802
19105,1108,805
19110,1099,812
19115,1098,809
19120,1102,814
19125,1101,817
19130,1089,817
19135,1088,818
19140,1090,822
19145,1095,827
19150,1088,830
19155,1078,828
19160,1081,828
19165,1076,837
19170,1070,835
19175,1074,831
19180,1073,838
19185,1069,840
19190,1070,840
19195,1068,840
19200,1064,841
19205,1057,848
19210,1051,847
19215,1043,848
19220,1051,847
19225,1031,845
19230,1034,847
19235,1031,842
19240,1021,851
19245,1005,849
19250,1012,840
19255,1002,847
19260,999,846
19265,992,845
19270,980,837
19275,973,845
19280,969,841
19285,961,846
19290,961,842
19295,947,841
19300,930,845
19305,929,847
19310,918,836
19315,917,840
19320,906,837
19325,891,836
19330,884,838
19335,885,837
19340,865,836
19345,853,833
19350,856,831
19355,836,828
19360,828,831
19365,832,832
19370,821,825
19375,820,831
19380,796,834
19385,800,825
19390,783,824
19395,783,828
19400,772,817
19405,772,827
19410,764,822
19415,776,830
19420,763,827
19425,763,820
19430,751,824
19435,748,823
19440,747,823
19445,744,824
19450,745,826
19455,755,821
19460,755,816
19465,757,822
19470,749,816
19475,753,818
19480,760,824
19485,760,816
19490,775,818
19495,774,811
19500,768,813
19505,776,814
19510,794,816
19515,791,809
19520,800,809
19525,820,812
19530,823,812
19535,833,811
19540,837,804
19545,851,801
19550,871,797
19555,879,797
19560,891,799
19565,900,800
19570,905,796
19575,917,795
19580,926,795
19585,942,788
19590,958,789
19595,961,790
19600,980,786
19605,982,785
19610,1005,775
19615,1009,773
19620,1026,777
19625,1036,777
19630,1044,770
19635,1054,768
19640,1064,771
19645,1077,765
19650,1086,763
19655,1099,757
19660,1098,754
19665,1112,761
19670,1121,758
19675,1128,750
19680,1137,752
19685,1147,749
19690,1153,745
19695,1150,743
19700,1153,745
19705,1146,742
19710,1170,741
19715,1184,739
19720,1171,742
19725,1171,742
19730,1181,734
19735,1180,741
19740,1185,737
19745,1193,734
19750,1188,733
19755,1184,737
19760,1191,739
19765,1185,742
19770,1171,741
19775,1190,741
19780,1191,737
19785,1181,741
19790,1181,743
19795,1184,741
19800,1179,743
19805,1177,747
19810,1179,749
19815,1166,745
19820,1166,754
19825,1162,748
19830,1159,755
19835,1150,751
19840,1146,758
19845,1146,758
19850,1143,764
19855,1144,769
19860,1137,768
19865,1139,771
19870,1130,781
19875,1124,777
19880,1129,778
19885,1118,786
19890,1108,780
19895,1124,790
19900,1109,794
19905,1116,795
19910,1105,796
19915,1113,796
19920,1104,804
19925,1109,803
19930,1101,810
19935,1094,809
19940,1095,813
19945,1088,818
19950,1097,816
19955,1094,830
19960,1086,824
19965,1088,827
19970,1081,826
19975,1080,826
19980,1085,836
19985,1073,834
19990,1080,841
19995,1073,837
20000,1066,839
20005,1068,837
20010,1066,843
20015,1067,840
20020,1058,843
20025,1061,843
20030,1054,847
20035,1040,842
20040,1046,842
20045,1046,848
20050,1035,848
20055,1034,846
20060,1018,847
20065,1010,847
20070,1002,844
20075,997,853
20080,995,840
20085,983,850
20090,979,842
20095,970,843
20100,969,846
20105,961,844
20110,947,844
20115,938,841
20120,931,839
20125,922,842
20130,917,840
20135,906,838
20140,893,841
20145,888,831
20150,884,838
20155,882,833
20160,855,834
20165,863,834
20170,839,830
20175,838,830
20180,834,826
20185,815,825
20190,806,831
20195,809,833
20200,800,827
20205,792,826
20210,787,826
20215,785,824
20220,774,829
20225,773,827
20230,762,826
20235,759,825
20240,762,819
20245,759,825
20250,755,822
20255,745,833
20260,757,823
20265,745,818
20270,741,821
20275,742,821
20280,753,823
20285,757,818
20290,752,814
20295,758,816
20300,763,819
20305,758,817
20310,766,814
20315,778,815
20320,781,812
20325,789,808
20330,800,819
20335,803,811
20340,811,811
20345,817,814
20350,831,806
20355,839,810
20360,843,805
20365,858,800
20370,867,799
20375,869,803
20380,889,799
20385,895,797
20390,916,796
20395,923,788
20400,930,795
20405,937,790
20410,964,791
20415,967,790
20420,975,783
20425,994,789
20430,1001,779
20435,1011,780
20440,1039,778
20445,1036,777
20450,1052,772
20455,1065,772
20460,1080,763
20465,1087,762
20470,1086,761
20475,1101,761
20480,1104,761
20485,1124,759
20490,1120,758
20495,1137,751
20500,1140,754
20505,1150,749
20510,1149,747
20515,1152,745
20520,1162,743
20525,1166,740
20530,1180,739
20535,1181,741
20540,1167,742
20545,1186,739
20550,1181,737
20555,1183,740
20560,1184,738
20565,1181,739
20570,1183,737
20575,1181,742
20580,1186,738
20585,1188,733
20590,1176,732
20595,1190,735
20600,1170,742
20605,1188,740
20610,1184,744
20615,1175,739
20620,1169,744
20625,1183,749
20630,1161,744
20635,1173,751
20640,1155,748
20645,1154,750
20650,1163,755
20655,1152,761
20660,1165,761
20665,1154,763
20670,1147,771
20675,1148,759
20680,1137,769
20685,1124,773
20690,1130,777
20695,1129,776
20700,1131,785
20705,1123,786
20710,1117,786
20715,1115,790
20720,1119,791
20725,1116,797
20730,1113,799
20735,1110,797
20740,1111,801
20745,1095,806
20750,1097,805
20755,1098,815
20760,1088,814
20765,1095,815
20770,1102,825
20775,1090,824
20780,1088,823
20785,1095,826
20790,1086,833
20795,1080,833
20800,1086,840
20805,1068,837
20810,1076,839
20815,1065,838
20820,1068,841
20825,1061,843
20830,1062,844
20835,1058,848
20840,1056,845
20845,1043,843
20850,1038,844
20855,1042,849
20860,1030,851
20865,1038,848
20870,1030,854
20875,1024,851
20880,1018,846
20885,1011,845
20890,1013,848
20895,998,847
20900,993,844
20905,991,842
20910,976,844
20915,973,845
20920,963,841
20925,955,849
20930,938,842
20935,933,842
20940,934,836
20945,925,838
20950,912,836
20955,900,839
20960,893,840
20965,879,833
20970,886,835
20975,866,839
20980,868,829
20985,851,836
20990,842,834
20995,831,831
21000,829,828
21005,816,837
21010,803,829
21015,802,832
21020,807,826
21025,791,826
21030,783,830
21035,789,832
21040,774,824
21045,761,822
21050,766,826
21055,761,827
21060,742,824
21065,752,827
21070,750,819
21075,748,825
21080,747,823
21085,749,819
21090,740,820
21095,753,823
21100,754,820
21105,750,815
21110,753,816
21115,754,822
21120,759,820
21125,767,816
21130,769,819
21135,778,815
21140,777,815
21145,790,815
21150,793,814
21155,807,815
21160,814,812
21165,824,813
21170,837,810
21175,837,810
21180,853,808
21185,856,805
21190,873,804
21195,873,803
21200,895,792
21205,912,797
21210,919,793
21215,930,792
21220,940,794
21225,957,786
21230,960,789
21235,977,791
21240,979,781
21245,1011,781
21250,1005,785
21255,1023,775
21260,1035,777
21265,1041,768
21270,1054,775
21275,1053,772
21280,1081,767
21285,1086,769
21290,1099,763
21295,1105,759
21300,1120,755
21305,1118,755
21310,1124,758
21315,1138,754
21320,1138,757
21325,1144,746
21330,1158,745
21335,1162,745
21340,1164,746
21345,1174,744
21350,1169,738
21355,1178,741
21360,1172,733
21365,1175,740
21370,1175,734
21375,1181,735
21380,1189,735
21385,1197,741
21390,1191,736
21395,1193,738
21400,1187,738
21405,1184,741
21410,1181,742
21415,1191,741
21420,1178,741
21425,1182,737
21430,1182,742
21435,1174,742
21440,1180,741
21445,1171,745
21450,1173,745
21455,1169,753
21460,1160,751
21465,1158,751
21470,1164,752
21475,1157,756
21480,1145,757
21485,1143,761
21490,1142,766
21495,1136,768
21500,1138,776
21505,1133,773
21510,1130,778
21515,1133,777
21520,1120,785
21525,1116,787
21530,1118,788
21535,1114,795
21540,1111,790
21545,1112,796
21550,1112,799
21555,1108,807
21560,1111,805
21565,1103,809
21570,1089,813
21575,1090,813
21580,1089,817
21585,1098,823
21590,1095,821
21595,1083,825
21600,1089,826
21605,1088,825
21610,1083,833
21615,1078,831
21620,1072,834
21625,1072,834
21630,1072,834
21635,1074,835
21640,1066,842
21645,1061,840
21650,1065,842
21655,1052,844
21660,1053,846
21665,1045,845
21670,1043,847
21675,1041,851
21680,1032,844
21685,1031,848
21690,1022,851
21695,1026,847
21700,1010,848
21705,1003,844
21710,1004,848
21715,997,841
21720,989,842
21725,985,847
21730,976,846
21735,970,841
21740,950,847
21745,955,847
21750,942,841
21755,939,843
21760,922,839
21765,923,837
21770,912,833
21775,902,834
21780,895,831
21785,890,837
21790,863,833
21795,862,839
21800,850,830
21805,848,834
21810,834,829
21815,833,825
21820,817,835
21825,820,830
21830,805,833
21835,810,832
21840,783,830
21845,794,827
21850,782,831
21855,786,831
21860,768,825
21865,764,823
21870,762,823
21875,756,822
21880,750,823
21885,753,823
21890,755,824
21895,752,821
21900,750,820
21905,746,822
21910,744,823
21915,747,814
21920,749,823
21925,760,817
21930,757,817
21935,753,819
21940,761,817
21945,767,812
21950,771,817
21955,770,819
21960,787,809
21965,792,809
21970,803,814
21975,800,811
21980,810,813
21985,817,808
21990,839,802
21995,843,805
22000,859,806
22005,863,800
22010,882,805
22015,885,798
22020,894,797
22025,902,795
22030,915,793
22035,937,789
22040,948,791
22045,965,785
22050,972,790
22055,983,783
22060,990,779
22065,1010,784
22070,1008,775
22075,1032,770
22080,1035,774
22085,1045,771
22090,1066,772
22095,1062,773
22100,1073,768
22105,1088,760
22110,1092,770
22115,1105,754
22120,1112,761
22125,1122,751
22130,1128,747
22135,1140,752
22140,1143,745
22145,1147,748
22150,1156,746
22155,1166,742
22160,1171,746
22165,1168,739
22170,1174,742
22175,1184,738
22180,1170,742
22185,1172,739
22190,1191,745
22195,1191,737
22200,1186,740
22205,1192,735
22210,1192,737
22215,1184,737
22220,1184,735
22225,1175,735
22230,1181,741
22235,1180,736
22240,1171,737
22245,1179,744
22250,1175,738
22255,1167,743
22260,1175,741
22265,1169,747
22270,1165,746
22275,1172,747
22280,1169,754
22285,1160,754
22290,1153,758
22295,1159,758
22300,1146,766
22305,1147,763
22310,1141,770
22315,1143,765
22320,1136,775
22325,1134,783
22330,1130,777
22335,1135,780
22340,1122,783
22345,1120,787
22350,1112,787
22355,1118,799
22360,1109,797
22365,1111,796
22370,1102,807
22375,1112,802
22380,1097,808
22385,1100,815
22390,1089,811
22395,1084,815
22400,1092,824
22405,1094,821
22410,1091,818
22415,1087,830
22420,1084,828
22425,1086,827
22430,1078,831
22435,1069,838
22440,1076,832
22445,1077,838
22450,1074,836
22455,1067,841
22460,1073,838
22465,1061,844
22470,1064,845
22475,1058,843
22480,1048,847
22485,1052,846
22490,1042,841
22495,1037,845
22500,1031,849
22505,1030,846
22510,1030,847
22515,1015,843
22520,1012,846
22525,999,842
22530,1007,849
22535,994,849
22540,980,844
22545,981,845
22550,978,842
22555,965,845
22560,956,840
22565,943,842
22570,941,840
22575,932,840
22580,926,841
22585,920,842
22590,900,838
22595,904,837
22600,883,834
22605,876,838
22610,874,837
22615,859,837
22620,854,834
22625,843,833
22630,843,825
22635,826,834
22640,815,831
22645,815,828
22650,809,825
22655,798,828
22660,791,826
22665,784,832
22670,783,828
22675,768,827
22680,765,826
22685,768,822
22690,768,825
22695,753,827
22700,755,826
22705,745,824
22710,744,821
22715,751,823
22720,741,816
22725,752,825
22730,735,818
22735,750,821
22740,745,820
22745,753,817
22750,764,813
22755,760,814
22760,768,820
22765,768,813
22770,776,816
22775,779,811
22780,793,815
22785,789,812
22790,800,806
22795,813,813
22800,821,805
22805,831,811
22810,834,809
22815,857,803
22820,860,799
22825,867,800
22830,881,802
22835,885,792
22840,902,795
22845,913,792
22850,918,795
22855,940,788
22860,957,790
22865,955,791
22870,986,781
22875,986,787
22880,999,778
22885,1016,778
22890,1026,773
22895,1036,777
22900,1039,774
22905,1058,768
22910,1062,773
22915,1080,768
22920,1081,762
22925,1093,765
22930,1101,764
22935,1113,759
22940,1110,759
22945,1117,753
22950,1131,752
22955,1152,755
22960,1147,750
22965,1145,743
22970,1153,746
22975,1155,749
22980,1168,750
22985,1177,748
22990,1175,737
22995,1171,739
23000,1187,738
23005,1175,733
23010,1191,733
23015,1193,741
23020,1181,736
23025,1182,739
23030,1189,737
23035,1192,739
23040,1193,736
23045,1187,736
23050,1189,737
23055,1184,738
23060,1176,743
23065,1172,743
23070,1170,746
23075,1180,738
23080,1171,743
23085,1171,739
23090,1163,749
23095,1165,755
23100,1162,753
23105,1150,757
23110,1158,758
23115,1141,755
23120,1139,764
23125,1151,765
23130,1149,764
23135,1136,777
23140,1140,776
23145,1135,778
23150,1122,780
23155,1131,784
23160,1107,784
23165,1121,788
23170,1114,795
23175,1118,795
23180,1110,794
23185,1112,800
23190,1112,807
23195,1103,801
23200,1095,807
23205,1101,807
23210,1095,814
23215,1091,819
23220,1087,823
23225,1093,822
23230,1090,822
23235,1087,825
23240,1086,828
23245,1087,827
23250,1083,830
23255,1081,833
23260,1074,837
23265,1077,841
23270,1066,834
23275,1072,846
23280,1066,844
23285,1060,845
23290,1052,844
23295,1056,845
23300,1051,843
23305,1047,846
23310,1044,848
23315,1037,841
23320,1034,845
23325,1031,844
23330,1020,849
23335,1020,841
23340,1007,847
23345,1000,845
23350,1001,846
23355,983,847
23360,988,840
23365,975,845
23370,969,848
23375,960,839
23380,959,839
23385,939,846
23390,943,841
23395,925,841
23400,919,839
23405,910,846
23410,914,838
23415,890,840
23420,886,836
23425,877,833
23430,864,837
23435,866,834
23440,848,832
23445,841,833
23450,835,832
23455,823,830
23460,814,826
23465,814,832
23470,805,832
23475,799,832
23480,795,827
23485,773,829
23490,771,825
23495,780,828
23500,761,830
23505,769,830
23510,753,821
23515,750,825
23520,752,831
23525,749,823
23530,749,820
23535,749,823
23540,758,816
23545,740,822
23550,748,816
23555,753,818
23560,752,818
23565,750,822
23570,758,817
23575,763,820
23580,770,815
23585,770,814
23590,774,819
23595,776,809
23600,792,813
23605,797,806
23610,812,815
23615,809,812
23620,819,807
23625,846,809
23630,841,809
23635,857,800
23640,867,806
23645,877,805
23650,888,798
23655,900,799
23660,902,798
23665,924,795
23670,930,794
23675,937,786
23680,951,787
23685,973,785
23690,982,787
23695,985,791
23700,1013,788
23705,1011,781
23710,1034,780
23715,1034,783
23720,1044,774
23725,1056,768
23730,1065,767
23735,1077,763
23740,1085,767
23745,1094,763
23750,1102,760
23755,1111,765
23760,1126,758
23765,1126,752
23770,1141,757
23775,1148,748
23780,1151,748
23785,1161,747
23790,1166,748
23795,1183,748
23800,1176,742
23805,1170,742
23810,1177,741
23815,1173,738
23820,1183,740
23825,1193,743
23830,1187,736
23835,1185,739
23840,1192,737
23845,1198,738
23850,1187,741
23855,1181,737
23860,1183,739
23865,1187,742
23870,1189,738
23875,1178,742
23880,1174,742
23885,1178,744
23890,1186,745
23895,1164,745
23900,1170,744
23905,1167,750
23910,1168,744
23915,1165,745
23920,1156,759
23925,1156,756
23930,1155,765
23935,1155,759
23940,1141,763
23945,1137,769
23950,1144,765
23955,1130,771
23960,1129,778
23965,1125,777
23970,1121,780
23975,1126,782
23980,1120,786
23985,1112,790
23990,1119,791
23995,1112,795
24000,1099,796
24005,1105,802
24010,1098,803
24015,1100,808
24020,1107,811
24025,1092,810
24030,1111,817
24035,1089,818
24040,1099,818
24045,1092,819
24050,1085,825
24055,1089,820
24060,1093,826
24065,1086,833
24070,1084,831
24075,1072,834
24080,1067,838
24085,1072,841
24090,1072,839
24095,1075,842
24100,1052,838
24105,1050,838
24110,1054,843
24115,1046,843
24120,1042,841
24125,1054,845
24130,1033,849
24135,1041,845
24140,1028,851
24145,1018,849
24150,1016,841
24155,1020,848
24160,1008,848
24165,998,848
24170,998,846
24175,991,843
24180,974,849
24185,975,840
24190,955,843
24195,956,846
24200,948,839
24205,935,841
24210,939,840
24215,920,840
24220,917,842
24225,915,837
24230,892,837
24235,886,839
24240,889,836
24245,860,831
24250,867,831
24255,854,835
24260,846,833
24265,833,834
24270,824,831
24275,817,831
24280,812,827
24285,814,828
24290,802,827
24295,791,825
24300,796,826
24305,785,828
24310,766,831
24315,765,825
24320,763,824
24325,762,822
24330,757,819
24335,745,825
24340,762,819
24345,748,824
24350,743,821
24355,739,822
24360,750,816
24365,752,819
24370,752,819
24375,754,821
24380,750,815
24385,759,815
24390,757,812
24395,765,815
24400,772,819
24405,780,816
24410,780,812
24415,799,810
24420,784,813
24425,799,810
24430,807,809
24435,825,815
24440,833,806
24445,847,809
24450,844,807
24455,868,811
24460,863,797
24465,879,801
24470,893,795
24475,900,797
24480,908,800
24485,927,795
24490,944,790
24495,947,792
24500,960,787
24505,969,782
24510,986,788
24515,991,781
24520,1010,783
24525,1021,779
24530,1035,775
24535,1043,776
24540,1052,772
24545,1069,767
24550,1080,760
24555,1087,766
24560,1086,766
24565,1100,760
24570,1111,758
24575,1116,753
24580,1127,755
24585,1140,755
24590,1138,750
24595,1154,748
24600,1154,744
24605,1167,750
24610,1173,741
24615,1160,747
24620,1175,741
24625,1179,739
24630,1177,741
24635,1178,740
24640,1189,742
24645,1189,740
24650,1189,738
24655,1193,738
24660,1191,734
24665,1186,735
24670,1179,738
24675,1176,734
24680,1179,737
24685,1190,737
24690,1186,741
24695,1181,740
24700,1176,738
24705,1179,742
24710,1176,742
24715,1169,747
24720,1169,748
24725,1172,755
24730,1169,754
24735,1156,748
24740,1160,754
24745,1152,755
24750,1151,758
24755,1149,761
24760,1143,768
24765,1139,765
24770,1129,778
24775,1137,771
24780,1125,777
24785,1128,776
24790,1129,783
24795,1118,784
24800,1124,783
24805,1114,789
24810,1117,792
24815,1110,793
24820,1107,796
24825,1113,800
24830,1096,805
24835,1096,809
24840,1100,816
24845,1095,808
24850,1095,812
24855,1097,820
24860,1097,818
24865,1099,826
24870,1087,832
24875,1092,826
24880,1083,833
24885,1088,835
24890,1084,836
24895,1072,835
24900,1077,843
24905,1078,840
24910,1071,840
24915,1067,841
24920,1061,847
24925,1062,844
24930,1056,842
24935,1058,845
24940,1041,843
24945,1050,843
24950,1040,850
24955,1031,847
24960,1028,845
24965,1028,850
24970,1015,847
24975,1017,851
24980,1004,848
24985,1003,847
24990,986,845
24995,986,850
25000,979,841
25005,970,844
25010,958,841
25015,946,842
25020,951,840
25025,936,841
25030,927,842
25035,922,838
25040,915,840
25045,904,837
25050,888,836
25055,880,840
25060,876,833
25065,871,834
25070,852,832
25075,850,831
25080,837,830
25085,843,829
25090,826,831
25095,819,830
25100,805,826
25105,803,825
25110,796,830
25115,789,828
25120,783,824
25125,775,825
25130,770,828
25135,775,828
25140,762,826
25145,752,823
25150,754,825
25155,761,824
25160,749,826
25165,752,823
25170,755,821
25175,744,823
25180,754,821
25185,742,817
25190,746,824
25195,752,816
25200,751,822
25205,757,817
25210,761,814
25215,761,810
25220,768,814
25225,776,813
25230,778,809
25235,794,813
25240,805,812
25245,810,810
25250,803,811
25255,826,808
25260,825,804
25265,838,803
25270,851,802
25275,855,807
25280,873,809
25285,884,796
25290,901,800
25295,907,797
25300,914,796
25305,925,793
25310,939,795
25315,964,792
25320,960,790
25325,977,788
25330,983,793
25335,1001,786
25340,1018,783
25345,1026,776
25350,1036,773
25355,1049,777
25360,1057,769
25365,1061,771
25370,1075,767
25375,1090,760
25380,1100,763
25385,1104,756
25390,1114,754
25395,1132,759
25400,1132,754
25405,1138,749
25410,1154,749
25415,1153,746
25420,1153,753
25425,1166,745
25430,1169,744
25435,1169,741
25440,1165,740
25445,1183,738
25450,1183,737
25455,1185,741
25460,1185,735
25465,1184,737
25470,1187,739
25475,1183,742
25480,1187,737
25485,1188,736
25490,1184,741
25495,1183,736
25500,1190,739
25505,1177,739
25510,1188,738
25515,1181,741
25520,1184,744
25525,1180,740
25530,1175,745
25535,1166,747
25540,1160,748
25545,1170,757
25550,1167,748
25555,1156,753
25560,1158,761
25565,1156,759
25570,1159,762
25575,1143,765
25580,1152,769
25585,1137,766
25590,1139,770
25595,1126,777
25600,1127,779
25605,1119,782
25610,1120,781
25615,1119,787
25620,1125,788
25625,1113,786
25630,1109,792
25635,1117,800
25640,1113,803
25645,1099,807
25650,1097,804
25655,1106,810
25660,1101,810
25665,1088,820
25670,1095,821
25675,1087,820
25680,1085,823
25685,1086,829
25690,1084,828
25695,1084,828
25700,1088,830
25705,1072,829
25710,1086,836
25715,1074,841
25720,1072,835
25725,1070,841
25730,1065,839
25735,1059,839
25740,1063,843
25745,1058,847
25750,1053,846
25755,1041,845
25760,1050,842
25765,1034,852
25770,1037,844
25775,1030,843
25780,1030,849
25785,1022,848
25790,1015,850
25795,1007,850
25800,1002,845
25805,998,842
25810,994,844
25815,981,840
25820,977,841
25825,975,845
25830,968,843
25835,949,841
25840,945,844
25845,938,841
25850,924,846
25855,912,836
25860,909,833
25865,897,837
25870,893,840
25875,879,837
25880,879,839
25885,867,834
25890,862,831
25895,844,833
25900,843,832
25905,825,833
25910,822,827
25915,814,829
25920,804,828
25925,802,828
25930,791,833
25935,789,828
25940,783,825
25945,777,822
25950,759,827
25955,772,828
25960,758,825
25965,760,826
25970,754,823
25975,750,819
25980,747,828
25985,752,825
25990,732,824
25995,747,822
26000,755,819
26005,742,822
26010,753,817
26015,754,819
26020,759,818
26025,765,824
26030,763,817
26035,763,819
26040,781,814
26045,782,814
26050,780,814
26055,791,816
26060,800,808
26065,802,810
26070,816,808
26075,824,812
26080,844,802
26085,848,808
26090,851,811
26095,869,803
26100,878,798
26105,885,797
26110,901,798
26115,914,799
26120,933,792
26125,935,788
26130,947,792
26135,959,788
26140,975,789
26145,986,789
26150,993,781
26155,1001,780
26160,1018,782
26165,1025,773
26170,1039,773
26175,1053,767
26180,1067,767
26185,1077,766
26190,1077,766
26195,1095,764
26200,1111,759
26205,1111,754
26210,1113,752
26215,1113,759
26220,1135,749
26225,1139,753
26230,1143,744
26235,1155,747
26240,1153,747
26245,1150,747
26250,1163,749
26255,1167,741
26260,1181,740
26265,1168,739
26270,1179,738
26275,1178,740
26280,1182,740
26285,1196,733
26290,1194,732
26295,1192,730
26300,1187,729
26305,1184,733
26310,1191,739
26315,1178,737
26320,1185,735
26325,1190,740
26330,1185,738
26335,1184,741
26340,1180,745
26345,1179,740
26350,1175,748
26355,1175,747
26360,1165,751
26365,1151,752
26370,1157,745
26375,1164,755
26380,1153,762
26385,1151,759
26390,1150,761
26395,1141,762
26400,1133,769
26405,1135,768
26410,1136,774
26415,1129,774
26420,1129,775
26425,1121,783
26430,1128,784
26435,1117,781
26440,1112,791
26445,1115,795
26450,1114,797
26455,1112,799
26460,1106,804
26465,1107,798
26470,1108,809
26475,1100,810
26480,1087,811
26485,1099,811
26490,1087,813
26495,1102,825
26500,1089,824
26505,1089,824
26510,1082,833
26515,1079,826
26520,1079,827
26525,1079,830
26530,1083,831
26535,1078,839
26540,1071,842
26545,1073,842
26550,1066,843
26555,1061,843
26560,1063,840
26565,1056,845
26570,1049,846
26575,1041,846
26580,1042,846
26585,1041,843
26590,1030,843
26595,1030,848
26600,1026,846
26605,1011,846
26610,1018,851
26615,999,850
26620,995,845
26625,988,850
26630,979,844
26635,974,841
26640,967,847
26645,971,839
26650,952,840
26655,945,841
26660,935,843
26665,935,834
26670,923,844
26675,922,838
26680,901,843
26685,895,838
26690,885,840
26695,881,834
26700,874,832
26705,861,837
26710,852,834
26715,841,838
26720,836,837
26725,824,833
26730,826,832
26735,810,830
26740,811,826
26745,799,831
26750,798,827
26755,781,829
26760,776,823
26765,778,827
26770,766,828
26775,763,832
26780,752,828
26785,766,821
26790,756,823
26795,751,828
26800,760,819
26805,755,823
26810,737,818
26815,745,826
26820,747,820
26825,749,819
26830,759,820
26835,768,821
26840,747,817
26845,752,819
26850,761,817
26855,777,817
26860,786,814
26865,794,817
26870,791,813
26875,800,812
26880,813,815
26885,811,807
26890,817,811
26895,836,805
26900,832,812
26905,845,808
26910,863,805
26915,885,805
26920,880,799
26925,896,799
26930,903,798
26935,916,797
26940,921,789
26945,933,793
26950,950,787
26955,967,786
26960,974,780
26965,984,782
26970,995,782
26975,1016,780
26980,1022,775
26985,1024,774
26990,1048,771
26995,1056,770
27000,1075,763
27005,1082,767
27010,1083,776
27015,1089,757
27020,1101,758
27025,1109,756
27030,1122,758
27035,1133,758
27040,1132,754
27045,1143,752
27050,1152,751
27055,1153,744
27060,1157,750
27065,1171,743
27070,1172,739
27075,1176,743
27080,1170,738
27085,1177,735
27090,1184,740
27095,1188,739
27100,1185,742
27105,1190,734
27110,1190,739
27115,1185,739
27120,1186,735
27125,1184,740
27130,1191,735
27135,1191,744
27140,1188,741
27145,1173,732
27150,1180,743
27155,1186,738
27160,1171,744
27165,1173,740
27170,1174,748
27175,1168,745
27180,1158,750
27185,1156,751
27190,1164,756
27195,1155,756
27200,1141,764
27205,1156,760
27210,1145,761
27215,1155,766
27220,1140,767
27225,1127,769
27230,1139,774
27235,1128,785
27240,1119,783
27245,1128,784
27250,1117,789
27255,1123,788
27260,1110,789
27265,1118,797
27270,1101,794
27275,1103,803
27280,1105,798
27285,1109,808
27290,1107,807
27295,1096,811
27300,1096,816
27305,1102,818
27310,1083,821
27315,1094,822
27320,1090,824
27325,1084,830
27330,1083,827
27335,1085,827
27340,1086,830
27345,1083,836
27350,1080,837
27355,1072,839
27360,1068,838
27365,1060,843
27370,1065,836
27375,1057,845
27380,1050,844
27385,1062,841
27390,1059,845
27395,1039,853
27400,1040,839
27405,1037,851
27410,1020,848
27415,1022,845
27420,1018,846
27425,1015,851
27430,1002,848
27435,1010,846
27440,995,853
27445,1002,848
27450,974,844
27455,971,851
27460,957,846
27465,965,846
27470,951,842
27475,947,843
27480,927,846
27485,929,840
27490,920,837
27495,908,841
27500,902,838
27505,889,840
27510,881,841
27515,880,839
27520,856,835
27525,863,834
27530,853,834
27535,842,831
27540,828,833
27545,825,837
27550,825,831
27555,811,830
27560,807,828
27565,792,825
27570,792,831
27575,788,829
27580,774,824
27585,767,823
27590,767,828
27595,766,819
27600,754,826
27605,751,824
27610,748,820
27615,754,823
27620,746,817
27625,747,823
27630,747,821
27635,748,825
27640,751,814
27645,750,822
27650,758,819
27655,748,819
27660,756,819
27665,768,815
27670,761,815
27675,777,821
27680,776,818
27685,784,811
27690,794,808
27695,799,810
27700,805,809
27705,817,809
27710,834,805
27715,839,808
27720,847,801
27725,852,805
27730,865,798
27735,876,795
27740,887,804
27745,909,797
27750,909,795
27755,927,795
27760,939,793
27765,946,788
27770,956,794
27775,976,791
27780,978,783
27785,993,783
27790,1001,776
27795,1021,775
27800,1026,775
27805,1031,771
27810,1054,776
27815,1055,776
27820,1076,769
27825,1079,770
27830,1096,765
27835,1092,762
27840,1109,757
27845,1125,761
27850,1120,748
27855,1127,758
27860,1140,752
27865,1132,750
27870,1148,750
27875,1160,748
27880,1170,745
27885,1163,743
27890,1171,748
27895,1178,738
27900,1177,737
27905,1176,738
27910,1189,738
27915,1185,739
27920,1187,738
27925,1184,734
27930,1189,733
27935,1181,739
27940,1197,741
27945,1183,738
27950,1187,739
27955,1177,742
27960,1182,737
27965,1171,739
27970,1174,741
27975,1172,740
27980,1178,743
27985,1175,746
27990,1171,749
27995,1173,747
28000,1161,750
28005,1162,753
28010,1163,753
28015,1154,754
28020,1152,763
28025,1159,754
28030,1150,767
28035,1141,769
28040,1137,771
28045,1138,771
28050,1122,774
28055,1121,778
28060,1120,786
28065,1126,780
28070,1124,790
28075,1113,792
28080,1112,792
28085,1120,796
28090,1121,797
28095,1106,798
28100,1108,804
28105,1104,807
28110,1092,815
28115,1106,811
28120,1106,814
28125,1089,816
28130,1095,820
28135,1092,822
28140,1086,824
28145,1086,828
28150,1076,830
28155,1086,829
28160,1082,830
28165,1073,833
28170,1081,835
28175,1070,834
28180,1068,839
28185,1075,838
28190,1069,842
28195,1065,845
28200,1053,845
28205,1054,844
28210,1041,848
28215,1054,842
28220,1031,842
28225,1035,844
28230,1019,849
28235,1021,850
28240,1024,846
28245,1014,847
28250,1002,849
28255,1002,847
28260,998,848
28265,992,839
28270,980,846
28275,978,845
28280,959,843
28285,964,845
28290,950,844
28295,938,842
28300,935,841
28305,914,838
28310,915,836
28315,906,839
28320,903,838
28325,885,840
28330,887,838
28335,870,835
28340,853,832
28345,844,837
28350,832,836
28355,840,838
28360,827,834
28365,823,830
28370,818,830
28375,802,828
28380,801,828
28385,795,833
28390,793,825
28395,781,827
28400,777,826
28405,765,826
28410,765,823
28415,756,828
28420,769,823
28425,756,824
28430,748,820
28435,745,818
28440,750,825
28445,747,819
28450,742,823
28455,745,818
28460,751,816
28465,743,818
28470,762,820
28475,758,819
28480,763,815
28485,771,814
28490,779,816
28495,776,816
28500,776,819
28505,795,814
28510,798,812
28515,796,802
28520,811,810
28525,819,808
28530,833,805
28535,841,810
28540,841,808
28545,865,808
28550,872,800
28555,877,803
28560,889,806
28565,903,797
28570,913,797
28575,932,796
28580,940,790
28585,950,784
28590,954,787
28595,977,785
28600,984,785
28605,984,783
28610,1010,779
28615,1015,780
28620,1020,771
28625,1046,772
28630,1058,766
28635,1071,769
28640,1074,770
28645,1080,764
28650,1093,763
28655,1105,760
28660,1109,755
28665,1111,754
28670,1128,749
28675,1129,753
28680,1144,754
28685,1145,747
28690,1151,747
28695,1153,743
28700,1155,744
28705,1164,748
28710,1174,744
28715,1176,738
28720,1188,741
28725,1179,741
28730,1181,739
28735,1182,740
28740,1188,733
28745,1191,735
28750,1197,736
28755,1188,733
28760,1194,738
28765,1185,739
28770,1185,735
28775,1193,736
28780,1187,742
28785,1185,743
28790,1184,742
28795,1171,741
28800,1179,743
28805,1170,745
28810,1167,746
28815,1167,748
28820,1168,750
28825,1161,752
28830,1159,755
28835,1157,758
28840,1147,759
28845,1149,760
28850,1138,765
28855,1141,767
28860,1134,774
28865,1132,773
28870,1126,775
28875,1135,781
28880,1128,781
28885,1119,779
28890,1112,790
28895,1110,786
28900,1122,794
28905,1109,796
28910,1111,805
28915,1100,811
28920,1107,803
28925,1099,811
28930,1100,815
28935,1102,810
28940,1097,822
28945,1096,817
28950,1089,823
28955,1091,825
28960,1091,826
28965,1081,825
28970,1080,831
28975,1081,832
28980,1073,835
28985,1083,834
28990,1073,839
28995,1078,839
29000,1068,845
29005,1061,843
29010,1060,841
29015,1057,842
29020,1053,848
29025,1044,842
29030,1046,843
29035,1049,848
29040,1038,848
29045,1035,850
29050,1028,843
29055,1018,848
29060,1017,845
29065,1013,843
29070,1003,853
29075,996,842
29080,990,848
29085,978,849
29090,979,845
29095,963,845
29100,971,840
29105,957,845
29110,944,843
29115,944,841
29120,934,845
29125,908,842
29130,911,839
29135,898,835
29140,895,837
29145,884,835
29150,869,834
29155,866,829
29160,860,830
29165,852,831
29170,844,831
29175,837,832
29180,823,833
29185,823,824
29190,818,828
29195,802,827
29200,797,827
29205,787,827
29210,790,826
29215,777,826
29220,773,822
29225,771,825
29230,756,827
29235,764,819
29240,760,818
29245,751,823
29250,763,823
29255,745,822
29260,741,821
29265,743,818
29270,740,817
29275,756,822
29280,747,817
29285,756,817
29290,752,814
29295,760,823
29300,774,818
29305,765,821
29310,774,820
29315,776,813
29320,788,816
29325,796,815
29330,803,810
29335,800,810
29340,815,810
29345,819,809
29350,831,807
29355,841,806
29360,848,803
29365,859,806
29370,877,799
29375,893,799
29380,889,795
29385,897,800
29390,919,793
29395,934,790
29400,943,793
29405,952,787
29410,968,785
29415,986,789
29420,981,785
29425,1005,783
29430,1014,774
29435,1027,775
29440,1036,777
29445,1052,771
29450,1052,771
29455,1064,766
29460,1074,763
29465,1084,767
29470,1101,767
29475,1106,760
29480,1112,755
29485,1123,755
29490,1137,755
29495,1145,754
29500,1142,752
29505,1142,751
29510,1162,745
29515,1160,749
29520,1165,743
29525,1176,743
29530,1175,745
29535,1175,742
29540,1181,741
29545,1180,738
29550,1193,738
29555,1188,743
29560,1190,737
29565,1192,734
29570,1188,735
29575,1192,731
29580,1192,740
29585,1177,736
29590,1192,742
29595,1181,738
29600,1173,735
29605,1176,738
29610,1178,745
29615,1180,744
29620,1175,748
29625,1167,744
29630,1162,746
29635,1161,751
29640,1153,752
29645,1162,760
29650,1155,757
29655,1154,760
29660,1146,764
29665,1146,762
29670,1131,763
29675,1141,774
29680,1135,778
29685,1133,776
29690,1127,774
29695,1136,783
29700,1109,785
29705,1115,782
29710,1119,784
29715,1116,794
29720,1107,795
29725,1111,797
29730,1109,802
29735,1096,805
29740,1102,807
29745,1106,808
29750,1090,813
29755,1095,813
29760,1094,816
29765,1093,823
29770,1091,824
29775,1085,827
29780,1087,823
29785,1083,832
29790,1083,835
29795,1087,836
29800,1076,843
29805,1075,833
29810,1066,836
29815,1071,842
29820,1065,844
29825,1062,838
29830,1051,845
29835,1062,844
29840,1041,840
29845,1050,849
29850,1038,842
29855,1041,846
29860,1038,846
29865,1029,845
29870,1011,846
29875,1027,842
29880,1020,847
29885,1007,848
29890,1001,844
29895,996,851
29900,982,844
29905,986,846
29910,981,842
29915,973,844
29920,956,846
29925,947,845
29930,944,841
29935,944,837
29940,924,835
29945,918,840
29950,907,840
29955,906,839
29960,889,841
29965,883,838
29970,878,835
29975,868,839
29980,854,833
29985,844,834
29990,841,829
29995,829,830
30000,825,827
30005,803,827
30010,810,828
30015,805,831
30020,794,832
30025,789,829
30030,771,827
30035,777,826
30040,775,824
30045,770,823
30050,772,827
30055,761,829
30060,749,823
30065,749,822
30070,762,822
30075,740,821
30080,750,824
30085,751,825
30090,748,825
30095,746,822
30100,758,819
30105,764,819
30110,757,820
30115,764,818
30120,767,816
30125,769,820
30130,776,809
30135,780,813
30140,790,812
30145,805,810
30150,802,809
30155,813,811
30160,821,810
30165,827,805
30170,841,796
30175,841,806
30180,848,803
30185,871,801
30190,874,802
30195,896,798
30200,903,799
30205,922,795
30210,917,793
30215,930,789
30220,951,788
30225,962,791
30230,978,785
30235,981,788
30240,995,785
30245,1005,783
30250,1024,778
30255,1033,774
30260,1039,772
30265,1051,772
30270,1065,771
30275,1064,766
30280,1081,764
30285,1091,763
30290,1099,757
30295,1105,760
30300,1111,754
30305,1123,757
30310,1127,755
30315,1138,753
30320,1146,751
30325,1153,744
30330,1156,747
30335,1163,746
30340,1174,740
30345,1164,743
30350,1178,741
30355,1174,739
30360,1188,741
30365,1181,738
30370,1182,739
30375,1185,738
30380,1189,738
30385,1188,735
30390,1182,736
30395,1177,738
30400,1196,737
30405,1182,738
30410,1185,745
30415,1185,734
30420,1184,740
30425,1176,745
30430,1183,744
30435,1170,743
30440,1179,747
30445,1177,749
30450,1151,748
30455,1165,752
30460,1164,754
30465,1158,760
30470,1152,761
30475,1145,754
30480,1147,761
30485,1151,765
30490,1143,770
30495,1125,768
30500,1138,772
30505,1132,775
30510,1125,780
30515,1133,776
30520,1125,784
30525,1121,783
30530,1117,790
30535,1106,795
30540,1112,796
30545,1104,797
30550,1106,801
30555,1097,804
30560,1098,808
30565,1099,810
30570,1096,811
30575,1089,820
30580,1096,824
30585,1095,819
30590,1097,823
30595,1089,826
30600,1078,832
30605,1094,831
30610,1089,824
30615,1073,833
30620,1078,835
30625,1070,841
30630,1062,836
30635,1069,839
30640,1072,840
30645,1052,844
30650,1060,843
30655,1066,841
30660,1049,840
30665,1050,840
30670,1037,844
30675,1033,846
30680,1027,851
30685,1029,846
30690,1022,848
30695,1015,844
30700,1013,843
30705,1005,848
30710,995,850
30715,992,842
30720,984,847
30725,979,846
30730,964,845
30735,966,843
30740,950,842
30745,943,846
30750,935,845
30755,933,837
30760,916,841
30765,917,836
30770,900,837
30775,897,835
30780,888,835
30785,880,835
30790,864,835
30795,862,833
30800,852,839
30805,850,831
30810,829,833
30815,822,834
30820,819,830
30825,809,831
30830,808,825
30835,798,826
30840,794,823
30845,782,826
30850,783,825
30855,776,835
30860,763,830
30865,764,829
30870,760,821
30875,745,824
30880,751,819
30885,758,823
30890,755,819
30895,746,821
30900,754,821
30905,743,819
30910,747,821
30915,751,818
30920,749,819
30925,749,819
30930,751,817
30935,763,821
30940,767,819
30945,769,815
30950,769,814
30955,793,811
30960,795,814
30965,796,814
30970,812,815
30975,804,814
30980,829,808
30985,829,812
30990,834,806
30995,853,805
31000,859,804
31005,871,801
31010,882,798
31015,894,799
31020,917,797
31025,927,798
31030,929,791
31035,938,795
31040,956,787
31045,958,786
31050,970,784
31055,987,778
31060,1000,778
31065,1020,777
31070,1032,775
31075,1037,779
31080,1048,772
31085,1061,769
31090,1057,772
31095,1075,764
31100,1091,771
31105,1103,761
31110,1096,758
31115,1109,754
31120,1123,757
31125,1119,753
31130,1132,755
31135,1150,752
31140,1141,749
31145,1160,751
31150,1162,747
31155,1156,746
31160,1163,744
31165,1174,738
31170,1174,737
31175,1185,738
31180,1185,736
31185,1185,745
31190,1180,738
31195,1186,730
31200,1188,737
31205,1191,736
31210,1181,742
31215,1193,740
31220,1177,734
31225,1188,740
31230,1187,737
31235,1184,743
31240,1181,746
31245,1179,740
31250,1178,742
31255,1174,745
31260,1168,749
31265,1171,742
31270,1169,749
31275,1166,752
31280,1156,755
31285,1161,759
31290,1149,759
31295,1144,760
31300,1140,761
31305,1142,766
31310,1146,768
31315,1137,769
31320,1131,771
31325,1130,778
31330,1120,780
31335,1121,785
31340,1125,787
31345,1116,790
31350,1123,786
31355,1112,799
31360,1106,792
31365,1113,799
31370,1104,803
31375,1100,807
31380,1102,813
31385,1089,809
31390,1097,811
31395,1091,814
31400,1091,819
31405,1083,821
31410,1081,826
31415,1089,824
31420,1084,832
31425,1083,829
31430,1087,829
31435,1077,832
31440,1068,836
31445,1077,837
31450,1064,842
31455,1074,839
31460,1065,840
31465,1056,836
31470,1062,842
31475,1049,844
31480,1051,844
31485,1052,846
31490,1041,846
31495,1034,846
31500,1034,843
31505,1032,843
31510,1012,848
31515,1015,848
31520,1006,851
31525,1002,846
31530,992,842
31535,991,844
31540,981,844
31545,979,845
31550,958,845
31555,960,841
31560,950,840
31565,943,842
31570,925,843
31575,923,843
31580,914,840
31585,912,838
31590,899,837
31595,898,840
31600,888,837
31605,877,831
31610,867,838
31615,851,836
31620,843,833
31625,838,831
31630,830,828
31635,826,832
31640,816,830
31645,800,829
31650,806,828
31655,789,830
31660,778,827
31665,783,826
31670,775,828
31675,771,825
31680,768,825
31685,764,827
31690,759,828
31695,759,824
31700,751,819
31705,755,821
31710,744,818
31715,749,828
31720,741,823
31725,756,821
31730,755,821
31735,750,818
31740,746,816
31745,769,822
31750,758,818
31755,767,818
31760,766,819
31765,772,819
31770,790,818
31775,785,811
31780,792,807
31785,812,810
31790,799,815
31795,815,816
31800,827,804
31805,840,805
31810,845,802
31815,853,802
31820,867,805
31825,873,798
31830,884,798
31835,901,800
31840,902,801
31845,925,793
31850,931,790
31855,944,792
31860,952,787
31865,976,787
31870,984,785
31875,995,784
31880,1004,778
31885,1019,780
31890,1026,773
31895,1037,778
31900,1050,772
31905,1058,767
31910,1081,768
31915,1085,771
31920,1100,762
31925,1103,761
31930,1119,753
31935,1120,762
31940,1127,760
31945,1134,751
31950,1136,746
31955,1153,754
31960,1153,747
31965,1165,746
31970,1168,747
31975,1168,748
31980,1168,741
31985,1184,740
31990,1175,740
31995,1175,736
32000,1182,740
32005,1190,739
32009,1189,740
32015,1187,737
32020,1193,737
32025,1186,739
32030,1188,733
32034,1180,733
32040,1180,739
32045,1180,742
32049,1184,738
32055,1184,741
32060,1179,734
32064,1171,740
32070,1172,742
32075,1172,743
32080,1172,750
32085,1169,746
32090,1178,747
32095,1159,749
32100,1152,755
32104,1148,759
32110,1154,759
32115,1150,762
32119,1150,764
32125,1141,770
32130,1131,777
32134,1130,775
32140,1135,775
32145,1126,777
32150,1121,787
32155,1128,780
32159,1118,789
32165,1117,794
32170,1116,796
32174,1108,798
32180,1103,797
32185,1104,803
32189,1095,803
32195,1097,803
32200,1103,807
32205,1093,812
32210,1100,815
32215,1089,822
32220,1086,823
32225,1084,825
32229,1085,824
32235,1090,830
32240,1076,832
32244,1080,826
32250,1077,832
32255,1088,833
32259,1073,835
32265,1072,838
32270,1074,830
32275,1064,839
32280,1060,838
32284,1056,841
32290,1059,841
32295,1045,849
32299,1046,842
32305,1044,848
32310,1035,844
32314,1040,845
32320,1036,848
32325,1022,850
32330,1016,846
32335,1015,849
32340,1018,850
32345,989,845
32350,990,848
32354,989,844
32360,973,842
32365,962,844
32369,967,850
32375,949,841
32380,946,846
32384,940,844
32390,931,838
32395,918,837
32400,908,839
32405,906,838
32409,902,832
32415,887,837
32420,882,832
32424,868,836
32430,861,835
32435,849,835
32439,841,836
32445,837,833
32450,830,832
32455,816,832
32460,825,830
32465,807,827
32470,786,828
32475,795,823
32479,781,824
32485,782,826
32490,765,825
32494,766,827
32500,756,829
32505,763,825
32509,753,819
32515,754,823
32520,759,827
32525,764,823
32530,740,825
32534,741,823
32540,747,820
32545,745,815
32549,742,816
32555,747,818
32560,752,820
32564,757,821
32570,758,814
32575,769,814
32580,770,817
32585,790,820
32590,782,817
32595,787,805
32600,798,811
32604,804,812
32610,815,808
32615,817,811
32619,827,811
32625,848,806
32630,846,805
32634,867,800
32640,865,807
32645,884,810
32650,896,797
32655,910,794
32659,923,798
32665,931,794
32670,942,790
32674,947,789
32680,966,796
32685,977,784
32689,988,786
32695,987,783
32700,1015,781
32705,1018,779
32710,1031,770
32715,1043,779
32720,1055,767
32725,1069,766
32729,1076,771
32735,1079,766
32740,1087,760
32744,1105,761
32750,1113,763
32755,1127,753
32759,1126,750
32765,1133,750
32770,1144,753
32775,1151,748
32780,1156,747
32785,1156,748
32790,1164,743
32795,1170,746
32800,1175,743
32805,1177,736
32810,1175,738
32815,1187,742
32820,1188,742
32825,1185,734
32830,1189,736
32835,1199,735
32840,1189,734
32845,1183,731
32850,1190,734
32855,1192,737
32860,1183,734
32865,1185,743
32870,1173,737
32875,1180,740
32880,1176,737
32885,1181,740
32890,1172,746
32895,1172,749
32900,1168,745
32905,1173,750
32910,1170,754
32915,1158,757
32920,1157,752
32925,1148,756
32930,1150,759
32935,1144,763
32940,1139,768
32945,1133,769
32950,1138,769
32955,1131,770
32960,1127,781
32965,1122,781
32970,1126,787
32975,1120,784
32980,1119,788
32985,1112,793
32990,1115,796
32995,1112,792
33000,1111,804
33005,1104,804
33010,1110,810
33015,1101,807
33020,1105,809
33025,1097,819
33030,1098,808
33035,1093,818
33040,1087,823
33045,1084,823
33050,1092,830
33055,1087,822
33060,1083,833
33065,1080,830
33070,1077,831
33075,1077,833
33080,1073,839
33085,1066,834
33090,1061,841
33095,1060,845
33100,1064,846
33105,1059,842
33110,1062,843
33115,1058,841
33120,1037,847
33125,1043,846
33130,1028,846
33135,1027,841
33140,1025,846
33145,1025,849
33150,1015,849
33155,1008,849
33160,996,846
33165,999,843
33170,986,845
33175,979,846
33180,971,845
33185,959,841
33190,960,843
33195,955,842
33200,943,841
33205,925,846
33210,932,839
33215,908,839
33220,916,839
33225,901,839
33230,903,836
33235,881,834
33240,878,834
33245,859,837
33250,859,829
33255,850,830
33260,830,829
33265,833,828
33270,826,826
33275,824,831
33280,804,833
33285,799,827
33290,792,824
33295,789,831
33300,787,824
33305,780,823
33310,770,824
33315,770,828
33320,760,828
33325,755,828
33330,758,824
33335,751,821
33340,746,817
33345,751,826
33350,763,821
33355,747,819
33360,757,817
33365,746,824
33370,749,818
33375,743,817
33380,756,817
33385,761,818
33390,757,817
33395,771,816
33400,772,822
33405,778,818
33410,787,810
33415,793,812
33420,799,816
33425,807,814
33430,813,813
33435,830,811
33440,835,805
33445,840,806
33450,864,800
33455,862,802
33460,878,804
33465,889,802
33470,892,794
33475,903,794
33480,916,799
33485,930,794
33490,939,788
33495,954,791
33500,973,784
33505,978,786
33510,994,780
33515,997,777
33520,1017,778
33525,1028,777
33530,1042,776
33535,1051,775
33540,1049,770
33545,1069,765
33550,1074,764
33555,1097,769
33560,1090,761
33565,1118,760
33570,1114,762
33575,1116,759
33580,1126,753
33585,1143,752
33590,1146,747
33595,1155,748
33600,1153,747
33605,1159,744
33610,1176,744
33615,1170,740
33620,1175,739
33625,1175,738
33630,1178,739
33635,1186,733
33640,1183,733
33645,1186,741
33650,1184,734
33655,1187,740
33660,1177,736
33665,1185,736
33670,1187,740
33675,1184,739
33680,1185,744
33685,1180,743
33690,1184,742
33695,1175,742
33700,1188,744
33705,1182,740
33710,1179,749
33715,1172,750
33720,1170,743
33725,1160,748
33730,1158,750
33735,1155,757
33740,1152,759
33745,1148,760
33750,1152,757
33755,1148,761
33760,1142,766
33765,1141,771
33770,1137,770
33775,1131,775
33780,1130,780
33785,1122,785
33790,1127,782
33795,1121,789
33800,1123,790
33805,1114,795
33810,1114,795
33815,1105,801
33820,1109,803
33825,1106,806
33830,1096,803
33835,1107,808
33840,1109,812
33845,1096,808
33850,1094,816
33855,1090,820
33860,1087,821
33865,1085,828
33870,1093,827
33875,1084,826
33880,1079,829
33885,1086,834
33890,1079,830
33895,1062,838
33900,1076,834
33905,1069,836
33910,1070,842
33915,1068,839
33920,1054,845
33925,1053,839
33930,1048,853
33935,1048,841
33940,1042,846
33945,1037,841
33950,1036,843
33955,1027,849
33960,1029,846
33965,1017,850
33970,1021,843
33975,1010,848
33980,1005,847
33985,997,840
33990,975,846
33995,985,846
34000,973,849
34005,970,844
34010,959,845
34015,946,843
34020,943,848
34025,929,847
34030,932,837
34035,909,843
34040,904,845
34045,898,840
34050,894,839
34055,887,838
34060,871,840
34065,864,839
34070,854,829
34075,850,836
34080,836,831
34085,830,829
34090,820,825
34095,813,830
34100,805,824
34105,799,828
34110,786,825
34115,776,826
34120,789,829
34125,779,822
34130,766,823
34135,758,820
34140,761,827
34145,768,830
34150,751,821
34155,759,822
34160,746,819
34165,758,826
34170,756,822
34175,751,818
34180,743,820
34185,748,822
34190,753,820
34195,747,815
34200,757,815
34205,769,820
34210,760,824
34215,770,813
34220,773,819
34225,788,817
34230,787,808
34235,805,808
34240,800,810
34245,815,808
34250,819,807
34255,833,810
34260,844,808
34265,851,806
34270,863,798
34275,867,802
34280,873,800
34285,894,797
34290,906,796
34295,916,797
34300,930,796
34305,934,792
34310,941,786
34315,962,794
34320,980,790
34325,979,781
34330,1004,780
34335,1017,779
34340,1021,780
34345,1033,775
34350,1046,774
34355,1053,772
34360,1058,768
34365,1072,770
34370,1089,767
34375,1097,761
34380,1101,760
34385,1106,761
34390,1133,755
34395,1121,758
34400,1137,754
34405,1148,747
34410,1148,747
34415,1158,742
34420,1163,746
34425,1169,739
34430,1152,741
34435,1169,744
34440,1179,739
34445,1175,741
34450,1180,735
34455,1190,734
34460,1189,732
34465,1183,732
34470,1178,735
34475,1190,732
34480,1191,740
34485,1195,733
34490,1192,734
34495,1183,737
34500,1189,738
34505,1184,744
34510,1182,735
34515,1184,734
34520,1182,745
34525,1173,749
34530,1178,744
34535,1165,748
34540,1169,750
34545,1162,753
34550,1154,749
34555,1149,755
34560,1153,758
34565,1145,765
34570,1147,766
34575,1142,766
34580,1154,767
34585,1137,767
34590,1126,777
34595,1127,780
34600,1124,779
34605,1120,784
34610,1118,784
34615,1120,789
34620,1118,792
34625,1118,796
34630,1114,795
34635,1110,795
34640,1106,804
34645,1108,805
34650,1100,807
34655,1107,810
34660,1095,818
34665,1093,816
34670,1095,821
34675,1101,824
34680,1098,831
34685,1086,827
34690,1090,823
34695,1089,831
34700,1089,833
34705,1089,838
34710,1081,837
34715,1073,839
34720,1071,839
34725,1072,838
34730,1062,833
34735,1072,842
34740,1057,844
34745,1046,844
34750,1054,842
34755,1049,842
34760,1042,844
34765,1038,848
34770,1032,849
34775,1022,845
34780,1025,845
34785,1011,843
34790,1011,844
34795,1021,847
34800,995,845
34805,986,843
34810,974,849
34815,975,845
34820,963,841
34825,960,842
34830,946,838
34835,939,835
34840,933,845
34845,924,838
34850,921,836
34855,902,835
34860,904,838
34865,887,834
34870,885,834
34875,871,839
34880,860,834
34885,852,837
34890,848,832
34895,846,828
34900,840,834
34905,834,833
34910,828,832
34915,806,829
34920,803,832
34925,796,830
34930,789,829
34935,788,828
34940,775,830
34945,775,828
34950,768,826
34955,763,824
34960,760,822
34965,766,827
34970,752,822
34975,745,825
34980,747,819
34985,745,819
34990,736,827
34995,749,820
35000,744,817
35005,747,820
35010,752,816
35015,759,818
35020,760,814
35025,763,813
35030,768,818
35035,773,818
35040,778,820
35045,790,812
35050,791,816
35055,801,813
35060,813,814
35065,809,812
35070,829,809
35075,826,805
35080,843,802
35085,856,803
35090,870,801
35095,890,804
35100,885,805
35105,896,806
35110,910,797
35115,926,798
35120,931,791
35125,949,784
35130,952,791
35135,983,786
35140,976,789
35145,985,787
35150,1007,784
35155,1011,783
35160,1025,780
35165,1041,775
35170,1058,771
35175,1061,773
35180,1059,770
35185,1075,765
35190,1096,760
35195,1094,766
35200,1112,762
35205,1115,756
35210,1119,756
35215,1126,754
35220,1136,750
35225,1140,748
35230,1159,747
35235,1157,747
35240,1164,744
35245,1164,742
35250,1175,738
35255,1179,745
35260,1177,739
35265,1172,740
35270,1182,740
35275,1184,737
35280,1182,741
35285,1170,740
35290,1186,743
35295,1193,736
35300,1193,733
35305,1178,739
35310,1193,745
35315,1190,735
35320,1192,740
35325,1176,744
35330,1185,739
35335,1190,740
35340,1174,750
35345,1168,739
35350,1161,744
35355,1166,745
35360,1160,748
35365,1159,749
35370,1156,754
35375,1152,761
35380,1146,763
35385,1140,762
35390,1142,767
35395,1128,767
35400,1137,771
35405,1140,772
35410,1130,774
35415,1136,779
35420,1129,779
35425,1128,784
35430,1125,784
35435,1121,791
35440,1116,792
35445,1105,796
35450,1110,800
35455,1100,801
35460,1112,805
35465,1111,807
35470,1102,814
35475,1098,811
35480,1096,811
35485,1096,817
35490,1090,820
35495,1089,826
35500,1090,825
35505,1092,830
35510,1079,831
35515,1076,826
35520,1089,835
35525,1073,837
35530,1070,837
35535,1070,840
35540,1065,842
35545,1069,841
35550,1058,845
35555,1055,845
35560,1056,844
35565,1046,846
35570,1050,848
35575,1040,849
35580,1050,848
35585,1030,841
35590,1038,848
35595,1023,849
35600,1025,842
35605,1017,843
35610,1008,847
35615,1000,842
35620,993,845
35625,999,850
35630,980,844
35635,965,841
35640,960,849
35645,959,842
35650,945,844
35655,937,839
35660,943,844
35665,924,835
35670,910,840
35675,916,840
35680,893,843
35685,891,837
35690,879,841
35695,874,838
35700,863,833
35705,859,833
35710,844,837
35715,841,830
35720,827,829
35725,830,830
35730,810,825
35735,809,827
35740,797,832
35745,786,828
35750,786,823
35755,784,826
35760,776,832
35765,766,826
35770,763,828
35775,753,828
35780,752,818
35785,757,828
35790,744,825
35795,748,826
35800,739,824
35805,743,820
35810,746,821
35815,755,816
35820,755,817
35825,746,816
35830,756,818
35835,750,818
35840,756,815
35845,771,816
35850,771,814
35855,777,817
35860,779,817
35865,794,818
35870,799,808
35875,800,815
35880,809,813
35885,819,811
35890,827,805
35895,842,804
35900,850,813
35905,846,808
35910,865,801
35915,890,795
35920,889,802
35925,904,798
35930,914,795
35935,923,799
35940,940,788
35945,951,788
35950,951,789
35955,972,788
35960,983,789
35965,992,781
35970,1010,779
35975,1014,780
35980,1028,779
35985,1029,775
35990,1046,776
35995,1066,767
36000,1072,765
36005,1081,771
36010,1089,764
36015,1105,765
36020,1106,760
36025,1113,758
36030,1119,749
36035,1134,754
36040,1143,750
36045,1143,758
36050,1146,744
36055,1157,745
36060,1158,741
36065,1167,741
36070,1182,742
36075,1177,741
36080,1174,739
36085,1174,738
36090,1183,742
36095,1193,737
36100,1185,738
36105,1191,736
36110,1192,729
36115,1181,738
36120,1185,737
36125,1190,739
36130,1182,739
36135,1188,738
36140,1190,737
36145,1180,738
36150,1173,738
36155,1182,742
36160,1167,747
36165,1166,746
36170,1158,742
36175,1169,747
36180,1165,750
36185,1155,751
36190,1162,757
36195,1152,754
36200,1144,755
36205,1153,761
36210,1134,769
36215,1139,766
36220,1139,770
36225,1138,772
36230,1127,780
36235,1126,777
36240,1132,780
36245,1119,790
36250,1115,784
36255,1115,793
36260,1115,793
36265,1103,793
36270,1119,803
36275,1102,807
36280,1095,801
36285,1109,810
36290,1107,807
36295,1107,813
36300,1097,812
36305,1090,819
36310,1095,817
36315,1096,826
36320,1091,825
36325,1086,829
36330,1082,828
36335,1084,829
36340,1078,831
36345,1085,834
36350,1075,832
36355,1067,842
36360,1066,841
36365,1070,835
36370,1067,842
36375,1051,849
36380,1054,843
36385,1052,840
36390,1041,848
36395,1042,845
36400,1029,843
36405,1028,845
36410,1032,847
36415,1020,849
36420,1025,849
36425,1011,845
36430,1002,846
36435,1002,842
36440,986,846
36445,984,850
36450,980,846
36455,977,844
36460,951,839
36465,952,841
36470,945,837
36475,935,839
36480,919,837
36485,919,845
36490,909,835
36495,898,842
36500,892,841
36505,890,829
36510,872,834
36515,873,839
36520,858,835
36525,846,837
36530,841,830
36535,831,833
36540,818,825
36545,820,829
36550,805,829
36555,803,831
36560,789,826
36565,797,834
36570,778,825
36575,775,822
36580,764,825
36585,770,831
36590,774,824
36595,760,829
36600,749,824
36605,761,828
36610,748,824
36615,751,824
36620,752,824
36625,755,823
36630,745,826
36635,744,817
36640,746,821
36645,764,819
36650,755,814
36655,760,813
36660,764,821
36665,770,816
36670,767,816
36675,778,818
36680,781,811
36685,796,814
36690,792,810
36695,804,811
36700,810,805
36705,820,805
36710,833,804
36715,848,804
36720,854,803
36725,866,807
36730,875,798
36735,879,795
36740,900,801
36745,904,797
36750,912,794
36755,932,792
36760,943,795
36765,952,786
36770,973,787
36775,978,788
36780,994,783
36785,1010,778
36790,1003,782
36795,1019,775
36800,1037,769
36805,1045,768
36810,1063,775
36815,1066,764
36820,1075,771
36825,1096,762
36830,1104,758
36835,1113,759
36840,1111,760
36845,1123,756
36850,1126,757
36855,1137,756
36860,1138,751
36865,1145,745
36870,1157,746
36875,1163,752
36880,1171,745
36885,1172,743
36890,1176,740
36895,1182,737
36900,1174,738
36905,1182,738
36910,1182,735
36915,1185,732
36920,1184,741
36925,1180,737
36930,1187,736
36935,1182,740
36940,1176,733
36945,1199,738
36950,1186,734
36955,1182,741
36960,1192,742
36965,1177,738
36970,1175,739
36975,1172,743
36980,1172,747
36985,1169,743
36990,1167,745
36995,1175,746
37000,1163,753
37005,1153,751
37010,1156,757
37015,1150,759
37020,1154,763
37025,1150,765
37030,1145,770
37035,1141,771
37040,1136,772
37045,1135,772
37050,1134,779
37055,1128,781
37060,1128,783
37065,1122,784
37070,1125,790
37075,1120,789
37080,1117,793
37085,1117,797
37090,1106,799
37095,1113,807
37100,1109,811
37105,1104,806
37110,1097,809
37115,1099,819
37120,1105,817
37125,1098,820
37130,1096,821
37135,1089,828
37140,1077,822
37145,1072,826
37150,1084,830
37155,1075,834
37160,1084,833
37165,1079,839
37170,1074,835
37175,1068,840
37180,1074,841
37185,1059,842
37190,1072,839
37195,1057,844
37200,1043,845
37205,1055,846
37210,1043,849
37215,1037,845
37220,1030,841
37225,1029,845
37230,1023,843
37235,1017,851
37240,1014,849
37245,1002,844
37250,996,846
37255,991,844
37260,990,846
37265,981,847
37270,987,842
37275,967,847
37280,961,841
37285,955,846
37290,945,840
37295,934,835
37300,925,841
37305,919,841
37310,905,842
37315,903,836
37320,892,838
37325,883,833
37330,871,839
37335,862,831
37340,848,830
37345,850,828
37350,845,833
37355,839,834
37360,823,831
37365,812,830
37370,796,828
37375,803,831
37380,795,830
37385,783,828
37390,773,829
37395,777,825
37400,762,826
37405,765,824
37410,763,825
37415,760,820
37420,755,826
37425,755,822
37430,749,820
37435,750,827
37440,741,824
37445,754,820
37450,749,820
37455,750,820
37460,756,816
37465,756,824
37470,748,814
37475,765,816
37480,760,817
37485,775,817
37490,764,814
37495,786,815
37500,781,817
37505,795,814
37510,800,810
37515,811,811
37520,826,810
37525,826,806
37530,832,809
37535,849,807
37540,859,803
37545,871,803
37550,880,806
37555,891,803
37560,897,796
37565,916,792
37570,925,798
37575,931,796
37580,943,793
37585,960,794
37590,973,790
37595,986,781
37600,993,781
37605,1013,779
37610,1018,779
37615,1029,774
37620,1043,774
37625,1050,769
37630,1069,771
37635,1075,767
37640,1082,766
37645,1084,764
37650,1093,763
37655,1108,758
37660,1119,758
37665,1124,753
37670,1127,747
37675,1137,748
37680,1140,751
37685,1148,752
37690,1161,745
37695,1155,740
37700,1167,743
37705,1165,742
37710,1176,741
37715,1174,740
37720,1177,735
37725,1179,735
37730,1185,739
37735,1178,739
37740,1186,736
37745,1189,737
37750,1192,740
37755,1188,739
37760,1187,736
37765,1185,739
37770,1193,733
37775,1184,736
37780,1183,736
37785,1176,740
37790,1169,744
37795,1182,750
37800,1180,752
37805,1174,750
37810,1175,747
37815,1166,753
37820,1155,749
37825,1162,757
37830,1150,754
37835,1153,762
37840,1147,756
37845,1145,766
37850,1134,770
37855,1132,776
37860,1136,770
37865,1132,775
37870,1131,778
37875,1126,785
37880,1120,781
37885,1119,789
37890,1119,794
37895,1108,794
37900,1112,801
37905,1109,796
37910,1099,796
37915,1114,799
37920,1098,814
37925,1098,813
37930,1104,810
37935,1100,818
37940,1091,820
37945,1093,811
37950,1103,818
37955,1087,829
37960,1078,821
37965,1088,834
37970,1081,833
37975,1086,831
37980,1080,834
37985,1080,835
37990,1072,837
37995,1070,840
38000,1078,839
38005,1065,839
38010,1061,842
38015,1056,843
38020,1038,842
38025,1048,846
38030,1044,843
38035,1031,845
38040,1035,844
38045,1025,848
38050,1025,848
38055,1020,847
38060,1017,845
38065,1003,846
38070,1013,850
38075,997,849
38080,987,841
38085,976,846
38090,975,844
38095,965,843
38100,947,846
38105,949,844
38110,931,843
38115,935,845
38120,919,838
38125,923,839
38130,903,842
38135,898,838
38140,878,833
38145,879,836
38150,863,835
38155,860,831
38160,853,836
38165,842,831
38170,839,834
38175,823,831
38180,826,833
38185,812,824
38190,803,829
38195,793,820
38200,795,826
38205,784,825
38210,778,827
38215,768,827
38220,770,825
38225,766,826
38230,766,820
38235,751,824
38240,743,821
38245,744,823
38250,759,828
38255,761,822
38260,741,820
38265,755,820
38270,764,821
38275,750,820
38280,749,823
38285,759,815
38290,771,816
38295,757,816
38300,763,818
38305,771,812
38310,772,815
38315,781,814
38320,787,813
38325,797,816
38330,806,813
38335,821,810
38340,816,808
38345,828,807
38350,831,805
38355,846,800
38360,849,802
38365,877,799
38370,879,805
38375,887,798
38380,909,796
38385,920,796
38390,924,800
38395,946,790
38400,952,791
38405,967,786
38410,984,791
38415,993,784
38420,997,785
38425,1013,774
38430,1023,781
38435,1032,771
38440,1039,773
38445,1052,770
38450,1061,770
38455,1075,769
38460,1081,769
38465,1094,764
38470,1097,756
38475,1116,759
38480,1121,760
38485,1126,755
38490,1137,757
38495,1135,749
38500,1150,746
38505,1165,751
38510,1165,749
38515,1161,742
38520,1170,747
38525,1166,744
38530,1167,740
38535,1187,738
38540,1183,741
38545,1188,737
38550,1184,739
38555,1185,737
38560,1185,731
38565,1191,737
38570,1189,738
38575,1191,733
38580,1199,743
38585,1192,739
38590,1185,743
38595,1175,736
38600,1198,741
38605,1177,743
38610,1173,738
38615,1172,747
38620,1166,749
38625,1170,748
38630,1166,748
38635,1154,752
38640,1167,756
38645,1160,757
38650,1149,760
38655,1147,758
38660,1147,761
38665,1139,761
38670,1143,771
38675,1136,772
38680,1132,773
38685,1138,775
38690,1126,782
38695,1125,783
38700,1122,790
38705,1113,793
38710,1115,790
38715,1120,794
38720,1110,794
38725,1115,798
38730,1095,805
38735,1091,806
38740,1100,802
38745,1102,812
38750,1095,816
38755,1099,819
38760,1095,822
38765,1083,820
38770,1090,821
38775,1098,829
38780,1086,828
38785,1087,833
38790,1087,833
38795,1078,834
38800,1085,838
38805,1076,842
38810,1074,835
38815,1073,841
38820,1067,843
38825,1066,841
38830,1049,844
38835,1053,849
38840,1054,844
38845,1055,846
38850,1041,841
38855,1044,846
38860,1034,843
38865,1030,845
38870,1021,846
38875,1012,846
38880,1002,845
38885,999,851
38890,999,847
38895,988,842
38900,989,842
38905,972,843
38910,962,839
38915,963,844
38920,949,843
38925,943,840
38930,944,841
38935,920,843
38940,918,838
38945,905,844
38950,889,834
38955,890,838
38960,882,832
38965,863,836
38970,870,831
38975,855,837
38980,842,830
38985,841,832
38990,826,837
38995,825,827
