timestamp_ms,ir_finger,ir_toe
0,1054,715
5,1061,716
10,1067,711
15,1068,708
20,1082,706
25,1086,704
30,1109,709
35,1115,706
40,1123,706
45,1128,701
50,1133,709
55,1137,710
60,1158,707
65,1173,709
70,1169,713
75,1173,716
80,1172,716
85,1176,716
90,1183,718
95,1176,717
100,1181,725
105,1192,726
110,1184,731
115,1184,737
120,1200,738
125,1193,745
130,1195,747
135,1191,751
140,1196,755
145,1176,758
150,1185,767
155,1174,765
160,1174,773
165,1178,782
170,1167,781
175,1166,786
180,1165,797
185,1157,797
190,1147,800
195,1154,812
200,1151,814
205,1150,816
210,1144,822
215,1134,825
220,1142,828
225,1140,833
230,1132,837
235,1121,842
240,1124,844
245,1110,844
250,1114,849
255,1106,853
260,1109,857
265,1113,856
270,1104,857
275,1106,857
280,1104,864
285,1102,862
290,1090,858
295,1097,869
300,1086,866
305,1090,866
310,1087,870
315,1086,868
320,1076,878
325,1085,865
330,1076,870
335,1074,869
340,1068,866
345,1063,869
350,1066,874
355,1055,866
360,1051,858
365,1051,862
370,1049,862
375,1047,864
380,1035,863
385,1033,857
390,1033,861
395,1018,861
400,1015,852
405,1010,854
410,998,850
415,1006,852
420,986,852
425,978,848
430,966,847
435,972,848
440,954,847
445,959,841
450,934,835
455,932,842
460,915,841
465,909,842
470,898,839
475,887,839
480,889,837
485,864,837
490,854,834
495,852,833
500,846,832
505,834,835
510,825,836
515,819,833
520,806,828
525,805,826
530,795,832
535,784,823
540,786,821
545,770,829
550,769,819
555,772,822
560,747,824
565,757,820
570,747,824
575,741,817
580,753,816
585,743,814
590,752,811
595,748,806
600,741,811
605,757,801
610,759,807
615,754,799
620,754,804
625,766,797
630,769,790
635,763,785
640,776,782
645,791,780
650,793,780
655,804,767
660,808,774
665,819,767
670,834,769
675,849,763
680,857,748
685,859,757
690,883,747
695,904,748
700,915,747
705,913,744
710,942,739
715,946,741
720,958,735
725,964,727
730,988,728
735,1002,720
740,1009,715
745,1018,721
750,1029,716
755,1045,713
760,1061,713
765,1071,711
770,1074,710
775,1084,705
780,1098,708
785,1099,710
790,1119,711
795,1129,708
800,1136,697
805,1144,708
810,1147,711
815,1146,711
820,1161,709
825,1169,710
830,1173,709
835,1179,717
840,1177,721
845,1188,722
850,1188,723
855,1185,723
860,1186,733
865,1193,732
870,1191,734
875,1190,744
880,1191,742
885,1175,753
890,1191,752
895,1184,758
900,1181,765
905,1183,767
910,1177,771
915,1179,780
920,1170,785
925,1170,788
930,1160,792
935,1158,797
940,1153,800
945,1154,802
950,1157,811
955,1148,813
960,1141,818
965,1139,818
970,1139,827
975,1140,832
980,1138,835
985,1115,842
990,1123,844
995,1123,847
1000,1117,851
1004,1122,851
1010,1115,849
1014,1106,853
1020,1109,855
1025,1102,852
1030,1096,860
1035,1100,866
1040,1099,863
1045,1090,866
1050,1088,864
1055,1095,868
1060,1100,871
1065,1084,868
1070,1088,867
1075,1080,868
1080,1076,866
1085,1086,870
1090,1067,868
1095,1062,865
1100,1068,864
1105,1067,861
1110,1070,863
1115,1052,866
1120,1046,865
1125,1052,859
1130,1044,864
1135,1042,859
1140,1031,861
1145,1026,857
1150,1016,858
1155,1019,856
1160,1003,854
1165,1002,853
1170,1000,848
1175,988,850
1180,979,844
1185,981,853
1190,965,843
1195,960,843
1200,947,843
1205,938,843
1210,925,838
1215,919,843
1220,906,841
1225,895,840
1230,884,838
1235,882,838
1240,870,842
1245,863,839
1250,841,838
1255,847,834
1260,828,830
1265,825,834
1270,811,832
1275,808,832
1280,803,829
1285,786,834
1290,791,827
1295,777,828
1300,775,824
1305,774,823
1310,752,825
1315,755,818
1320,760,822
1325,751,817
1330,751,813
1335,749,811
1340,762,817
1345,740,809
1350,754,811
1355,751,808
1360,762,809
1365,759,804
1370,752,801
1375,769,795
1380,768,800
1385,779,790
1390,775,790
1395,782,782
1400,788,774
1405,799,774
1410,822,774
1415,819,770
1420,836,762
1425,841,761
1430,861,760
1435,866,759
1440,873,756
1445,891,754
1450,893,745
1455,917,744
1460,927,742
1465,938,734
1470,944,736
1475,967,735
1480,975,728
1485,983,725
1490,1001,725
1495,1014,721
1500,1030,719
1505,1040,724
1510,1049,715
1515,1061,710
1520,1079,708
1525,1083,708
1530,1091,707
1535,1110,706
1540,1108,704
1545,1128,707
1550,1129,710
1555,1136,709
1560,1148,705
1565,1146,708
1570,1152,709
1575,1173,705
1580,1169,715
1585,1172,714
1590,1179,714
1595,1187,712
1600,1180,721
1605,1181,723
1610,1186,731
1615,1187,727
1620,1191,739
1625,1184,741
1630,1179,743
1635,1182,749
1640,1176,750
1645,1184,756
1650,1186,763
1655,1185,766
1660,1179,770
1665,1172,773
1670,1170,779
1675,1166,779
1680,1159,788
1685,1155,797
1690,1146,796
1695,1151,801
1700,1157,804
1705,1139,809
1710,1148,819
1715,1143,826
1720,1136,825
1725,1137,828
1730,1128,830
1735,1128,837
1740,1127,841
1745,1128,840
1750,1118,848
1755,1114,852
1760,1113,849
1765,1110,853
1770,1113,858
1775,1092,859
1780,1105,860
1785,1092,861
1790,1098,864
1795,1088,861
1800,1087,864
1805,1099,863
1810,1095,869
1815,1085,867
1820,1089,869
1825,1083,872
1830,1071,870
1835,1075,867
1840,1078,871
1845,1063,869
1850,1067,866
1855,1063,867
1860,1066,865
1865,1064,862
1870,1049,864
1875,1056,860
1880,1051,855
1885,1042,858
1890,1027,857
1895,1029,859
1900,1028,861
1905,1017,858
1910,1012,859
1915,1007,853
1920,999,853
1925,992,853
1930,983,849
1935,976,847
1940,970,849
1945,966,843
1950,953,841
1955,930,842
1960,929,846
1965,928,841
1970,915,841
1975,913,844
1980,891,837
1985,872,840
1990,876,837
1995,879,842
2000,859,832
2005,837,839
2009,841,835
2015,830,825
2020,823,832
2025,819,832
2029,806,831
2035,797,830
2040,783,827
2045,788,828
2050,781,828
2055,772,817
2060,766,820
2065,768,820
2070,760,818
2075,758,816
2080,753,821
2085,759,818
2090,745,814
2095,745,812
2100,750,811
2105,755,809
2110,750,803
2115,743,798
2120,758,801
2125,757,794
2130,757,796
2135,776,790
2140,768,792
2145,785,783
2150,785,783
2155,796,777
2160,813,777
2165,812,772
2170,831,769
2175,841,762
2180,843,761
2185,854,756
2190,869,758
2195,886,753
2200,893,752
2205,905,740
2210,917,740
2215,934,739
2220,943,740
2225,949,730
2230,970,731
2235,985,728
2240,979,722
2245,1005,723
2250,1018,722
2255,1021,718
2260,1044,713
2265,1058,712
2270,1068,711
2275,1073,709
2280,1087,704
2285,1101,709
2290,1112,709
2295,1117,707
2300,1126,702
2305,1136,708
2310,1154,709
2315,1142,707
2320,1160,713
2325,1150,710
2330,1166,707
2335,1165,713
2340,1164,712
2345,1177,717
2350,1189,722
2355,1179,723
2360,1180,724
2365,1186,731
2370,1194,736
2375,1187,734
2380,1187,739
2385,1191,746
2390,1182,745
2395,1179,749
2400,1184,763
2405,1194,759
2410,1181,762
2415,1189,771
2420,1179,775
2425,1174,775
2430,1179,783
2435,1162,793
2440,1162,791
2445,1158,799
2450,1164,803
2455,1151,809
2460,1147,813
2465,1136,816
2470,1145,820
2475,1142,818
2480,1140,825
2485,1127,838
2490,1138,834
2495,1125,839
2500,1116,843
2505,1119,850
2510,1115,847
2515,1115,858
2520,1107,852
2525,1108,858
2530,1107,863
2535,1107,867
2540,1108,869
2545,1102,864
2550,1099,870
2555,1091,865
2560,1094,870
2565,1089,869
2570,1086,871
2575,1085,867
2580,1082,869
2585,1074,865
2590,1076,869
2595,1080,863
2600,1066,862
2605,1061,867
2610,1070,864
2615,1059,866
2620,1062,866
2625,1048,865
2630,1052,863
2635,1051,857
2640,1031,856
2645,1035,858
2650,1030,856
2655,1028,855
2660,1016,855
2665,1004,854
2670,1001,851
2675,996,850
2680,990,848
2685,984,853
2690,981,853
2695,960,844
2700,963,844
2705,949,842
2710,940,843
2715,928,843
2720,925,837
2725,910,841
2730,907,840
2735,899,842
2740,890,842
2745,866,839
2750,857,831
2755,858,837
2760,844,837
2765,835,832
2770,824,831
2775,834,831
2780,807,835
2785,794,832
2790,791,830
2795,796,826
2800,783,827
2805,778,824
2810,780,827
2815,756,820
2820,764,817
2825,751,823
2830,752,815
2835,756,819
2840,742,820
2845,748,812
2850,758,807
2855,746,808
2860,745,809
2865,756,808
2870,749,805
2875,757,802
2880,757,800
2885,754,790
2890,773,791
2895,789,787
2900,778,789
2905,788,782
2910,800,781
2915,805,779
2920,821,772
2925,829,767
2930,838,767
2935,845,763
2940,856,754
2945,873,752
2950,879,750
2955,885,753
2960,907,751
2965,910,744
2970,939,740
2975,935,736
2980,958,731
2985,974,730
2990,981,728
2995,991,727
3000,1009,722
3005,1026,720
3010,1031,721
3015,1042,716
3020,1060,706
3025,1068,712
3030,1084,708
3035,1093,706
3040,1099,705
3045,1105,705
3050,1122,704
3055,1130,706
3060,1136,706
3065,1142,706
3070,1149,707
3075,1150,712
3080,1159,712
3085,1169,710
3090,1172,713
3095,1178,713
3100,1177,718
3105,1183,720
3110,1194,725
3115,1177,728
3120,1186,727
3125,1184,738
3130,1186,734
3135,1190,743
3140,1183,744
3145,1183,751
3150,1177,753
3155,1183,755
3160,1184,769
3165,1171,766
3170,1173,770
3175,1174,776
3180,1173,784
3185,1170,788
3190,1168,794
3195,1170,793
3200,1162,796
3205,1166,802
3210,1158,809
3215,1146,814
3220,1152,820
3225,1149,820
3230,1135,831
3235,1130,827
3240,1122,831
3245,1129,834
3250,1119,841
3255,1125,846
3260,1115,847
3265,1113,851
3270,1108,848
3275,1102,853
3280,1103,856
3285,1099,864
3290,1104,865
3295,1106,862
3300,1080,869
3305,1091,866
3310,1088,867
3315,1094,866
3320,1088,871
3325,1089,869
3330,1088,864
3335,1076,868
3340,1077,866
3345,1070,865
3350,1077,867
3355,1076,862
3360,1065,864
3365,1068,865
3370,1063,866
3375,1060,865
3380,1053,864
3385,1044,860
3390,1039,857
3395,1036,858
3400,1030,855
3405,1028,854
3410,1030,858
3415,1016,858
3420,1007,855
3425,1009,854
3430,997,851
3435,981,851
3440,977,850
3445,973,847
3450,969,844
3455,963,842
3460,946,844
3465,932,848
3470,927,845
3475,915,846
3480,903,837
3485,896,834
3490,894,838
3495,883,837
3500,871,838
3505,860,838
3510,866,834
3515,847,830
3520,836,836
3525,823,830
3530,809,832
3535,808,826
3540,803,829
3545,798,828
3550,787,821
3555,780,834
3560,779,825
3565,761,821
3570,764,818
3575,756,824
3580,752,813
3585,752,815
3590,750,812
3595,747,812
3600,750,811
3605,746,809
3610,747,812
3615,752,809
3620,759,803
3625,755,804
3630,761,796
3635,770,795
3640,764,787
3645,769,794
3650,778,790
3655,796,788
3660,794,779
3665,800,782
3670,807,779
3675,824,769
3680,828,772
3685,841,762
3690,854,761
3695,864,756
3700,870,756
3705,886,748
3710,899,744
3715,915,742
3720,922,740
3725,939,739
3730,948,738
3735,955,725
3740,972,726
3745,998,726
3750,1004,721
3755,1013,722
3760,1024,720
3765,1040,718
3770,1049,715
3775,1057,712
3780,1075,703
3785,1082,709
3790,1079,707
3795,1103,703
3800,1120,705
3805,1118,703
3810,1123,706
3815,1132,712
3820,1146,710
3825,1150,712
3830,1154,714
3835,1152,709
3840,1163,710
3845,1166,713
3850,1173,711
3855,1182,723
3860,1183,720
3865,1180,724
3870,1186,725
3875,1194,729
3880,1189,735
3885,1192,742
3890,1200,744
3895,1180,745
3900,1184,750
3905,1190,753
3910,1185,762
3915,1184,766
3920,1177,766
3925,1171,776
3930,1173,778
3935,1175,786
3940,1173,788
3945,1165,794
3950,1161,800
3955,1166,799
3960,1162,803
3965,1149,811
3970,1139,816
3975,1140,818
3980,1148,825
3985,1133,829
3990,1124,833
3995,1137,834
4000,1125,838
4005,1117,839
4010,1132,845
4014,1119,844
4019,1114,851
4025,1116,850
4030,1101,857
4035,1104,856
4040,1095,858
4045,1102,857
4050,1096,864
4054,1100,858
4059,1098,864
4065,1090,868
4070,1086,864
4075,1090,864
4080,1092,867
4085,1085,868
4090,1076,873
4094,1079,872
4100,1074,871
4105,1074,873
4110,1066,869
4115,1073,867
4120,1054,864
4125,1059,863
4130,1054,861
4135,1054,868
4140,1050,865
4145,1037,864
4150,1036,856
4155,1037,857
4160,1025,861
4165,1020,857
4170,1003,852
4175,1007,856
4180,1002,855
4185,997,852
4190,990,850
4195,971,843
4200,969,843
4205,948,840
4210,952,848
4215,946,848
4220,933,840
4225,929,839
4230,917,843
4235,911,840
4240,895,840
4245,880,841
4250,880,837
4255,871,837
4260,858,835
4265,851,836
4270,848,835
4275,836,836
4280,828,834
4285,811,830
4290,805,833
4295,799,829
4300,793,830
4305,792,824
4310,791,823
4315,768,833
4320,762,821
4325,768,820
4330,754,824
4335,758,817
4340,754,823
4345,745,816
4350,752,811
4355,753,814
4360,741,803
4365,743,806
4370,757,807
4375,751,805
4380,755,801
4385,762,800
4390,764,795
4395,767,789
4400,772,789
4405,787,785
4410,788,785
4415,795,781
4420,810,781
4425,822,770
4430,819,772
4435,835,766
4440,840,766
4445,847,763
4450,875,753
4455,871,752
4460,882,749
4465,894,752
4470,914,746
4475,925,736
4480,937,736
4485,958,735
4490,972,729
4495,981,729
4500,992,722
4505,1004,717
4510,1014,718
4515,1024,716
4520,1048,713
4525,1039,717
4530,1063,713
4535,1077,708
4540,1092,710
4545,1098,702
4550,1104,703
4555,1113,708
4560,1134,708
4565,1127,710
4570,1135,711
4575,1147,706
4580,1146,708
4585,1152,711
4590,1171,718
4595,1162,717
4600,1176,718
4605,1172,720
4610,1181,718
4615,1176,726
4620,1195,723
4625,1193,726
4630,1196,730
4635,1183,736
4640,1193,742
4645,1189,744
4650,1181,748
4655,1179,750
4660,1189,753
4665,1185,758
4670,1179,763
4675,1177,767
4680,1172,777
4685,1170,774
4690,1165,777
4695,1165,786
4700,1171,790
4705,1160,796
4710,1160,800
4715,1156,807
4720,1139,809
4725,1152,815
4730,1152,820
4735,1136,831
4740,1129,829
4745,1134,832
4750,1131,836
4755,1120,841
4760,1132,847
4765,1121,846
4770,1117,849
4775,1107,855
4780,1109,855
4785,1100,854
4790,1105,859
4795,1107,860
4800,1106,866
4805,1095,863
4810,1096,865
4815,1090,865
4820,1097,867
4825,1095,868
4830,1090,865
4835,1086,870
4840,1088,868
4845,1080,871
4850,1075,869
4855,1077,868
4860,1079,870
4865,1073,865
4870,1068,868
4875,1058,866
4880,1065,865
4885,1052,868
4890,1042,867
4895,1043,866
4900,1042,859
4905,1032,859
4910,1021,858
4915,1026,857
4920,1012,852
4925,1009,856
4930,1001,854
4935,997,854
4940,1000,849
4945,975,853
4950,981,849
4955,952,848
4960,958,844
4965,947,846
4970,942,844
4975,926,843
4980,914,838
4985,915,834
4990,907,834
4995,900,837
5000,877,841
5005,890,837
5010,862,832
5015,846,833
5020,845,833
5025,838,831
5030,825,835
5035,826,829
5040,808,829
5045,806,833
5050,802,827
5055,789,833
5060,773,829
5065,773,828
5070,768,825
5075,772,829
5080,759,816
5085,759,824
5090,751,821
5095,750,814
5100,746,816
5105,750,809
5110,744,812
5115,747,815
5120,750,809
5125,746,805
5130,751,808
5135,756,802
5140,759,799
5145,763,799
5150,769,793
5155,773,787
5160,780,784
5165,792,785
5170,801,780
5175,809,778
5180,818,774
5185,821,772
5190,835,765
5195,857,764
5200,847,757
5205,873,755
5210,884,750
5215,892,750
5220,911,747
5225,921,747
5230,934,741
5235,949,738
5240,954,732
5245,958,730
5250,982,723
5255,997,721
5260,1007,723
5265,1018,718
5270,1030,717
5275,1047,715
5280,1060,714
5285,1062,708
5290,1081,707
5295,1086,708
5300,1088,707
5305,1108,704
5310,1114,705
5315,1129,707
5320,1136,707
5325,1145,708
5330,1143,701
5335,1150,711
5340,1166,708
5345,1161,713
5350,1178,712
5355,1171,716
5360,1180,716
5365,1174,719
5370,1184,720
5375,1185,724
5380,1187,729
5385,1196,735
5390,1185,733
5395,1193,739
5400,1186,736
5405,1192,747
5410,1193,755
5415,1191,760
5420,1181,769
5425,1176,768
5430,1167,765
5435,1163,778
5440,1176,779
5445,1158,785
5450,1163,793
5455,1166,794
5460,1165,800
5465,1150,804
5470,1154,810
5475,1145,806
5480,1152,814
5485,1135,828
5490,1132,829
5495,1141,828
5500,1121,831
5505,1128,837
5510,1120,838
5515,1122,846
5520,1110,846
5525,1116,847
5530,1105,853
5535,1108,855
5540,1109,859
5545,1101,862
5550,1108,865
5555,1098,855
5560,1095,863
5565,1099,863
5570,1093,865
5575,1089,867
5580,1079,870
5585,1095,865
5590,1084,871
5595,1077,869
5600,1076,869
5605,1078,869
5610,1075,869
5615,1067,864
5620,1064,865
5625,1065,865
5630,1062,860
5635,1066,862
5640,1042,863
5645,1041,865
5650,1050,863
5655,1043,861
5660,1037,855
5665,1022,858
5670,1026,854
5675,1018,861
5680,1011,851
5685,997,853
5690,988,849
5695,983,849
5700,972,854
5705,970,848
5710,970,844
5715,959,850
5720,941,844
5725,935,841
5730,926,843
5735,915,838
5740,909,845
5745,899,841
5750,897,837
5755,883,837
5760,871,836
5765,863,837
5770,855,835
5775,849,829
5780,840,832
5785,822,833
5790,811,825
5795,802,832
5800,798,835
5805,787,828
5810,791,823
5815,785,829
5820,769,822
5825,764,825
5830,763,823
5835,752,829
5840,754,819
5845,751,818
5850,761,816
5855,748,819
5860,743,810
5865,741,811
5870,742,807
5875,747,805
5880,744,804
5885,748,803
5890,760,800
5895,764,800
5900,765,794
5905,775,792
5910,775,786
5915,784,784
5920,799,780
5925,802,775
5930,813,778
5935,822,769
5940,826,766
5945,832,764
5950,847,763
5955,850,756
5960,875,755
5965,889,749
5970,903,749
5975,911,744
5980,922,742
5985,931,732
5990,944,739
5995,959,728
6000,977,726
6005,986,727
6010,1000,726
6015,1007,720
6020,1027,718
6025,1045,717
6030,1053,718
6035,1065,712
6040,1068,706
6045,1083,709
6050,1094,711
6055,1103,713
6060,1112,703
6065,1119,707
6070,1128,706
6075,1133,709
6080,1149,711
6085,1139,713
6090,1149,709
6095,1172,706
6100,1167,715
6105,1177,716
6110,1185,713
6115,1172,715
6120,1180,724
6125,1181,721
6130,1181,723
6135,1190,732
6140,1188,736
6145,1183,738
6150,1185,741
6155,1187,746
6160,1188,753
6165,1178,755
6170,1181,756
6175,1189,759
6180,1177,762
6185,1177,774
6190,1172,780
6195,1165,784
6200,1177,790
6205,1163,792
6210,1161,792
6215,1162,802
6220,1149,806
6225,1153,810
6230,1136,815
6235,1148,818
6240,1138,820
6245,1132,825
6250,1132,835
6255,1139,834
6260,1127,835
6265,1126,839
6270,1112,846
6275,1117,848
6280,1116,850
6285,1111,857
6290,1117,852
6295,1101,853
6300,1098,857
6305,1106,863
6310,1098,865
6315,1100,860
6320,1100,865
6325,1093,863
6330,1091,866
6335,1093,864
6340,1080,866
6345,1091,871
6350,1078,870
6355,1072,870
6360,1081,873
6365,1071,871
6370,1074,866
6375,1058,867
6380,1072,868
6385,1058,863
6390,1048,858
6395,1061,863
6400,1042,862
6405,1031,864
6410,1040,858
6415,1036,860
6420,1028,855
6425,1026,861
6430,1012,856
6435,1002,853
6440,999,850
6445,996,846
6450,982,847
6455,974,843
6460,967,847
6465,965,847
6470,956,843
6475,944,846
6480,935,839
6485,929,845
6490,919,837
6495,911,835
6500,897,840
6505,880,841
6510,876,836
6515,869,834
6520,856,835
6525,850,832
6530,836,835
6535,831,833
6540,818,832
6545,815,831
6550,811,829
6555,796,824
6560,789,831
6565,788,825
6570,772,824
6575,777,826
6580,770,824
6585,765,817
6590,761,820
6595,754,820
6600,758,819
6605,748,815
6610,757,816
6615,750,812
6620,748,812
6625,744,814
6630,751,805
6635,752,810
6640,755,802
6645,754,798
6650,764,796
6655,771,792
6660,777,784
6665,784,787
6670,785,785
6675,790,785
6680,810,782
6685,813,773
6690,819,775
6695,834,769
6700,839,763
6705,861,763
6710,857,755
6715,871,751
6720,897,751
6725,903,746
6730,921,743
6735,928,742
6740,950,736
6745,952,739
6750,965,733
6755,968,728
6760,993,724
6765,1010,721
6770,1015,718
6775,1029,715
6780,1040,722
6785,1044,708
6790,1070,711
6795,1080,712
6800,1077,710
6805,1091,711
6810,1104,705
6815,1115,710
6820,1123,708
6825,1129,704
6830,1147,709
6835,1148,707
6840,1151,711
6845,1156,714
6850,1166,717
6855,1177,710
6860,1169,713
6865,1185,714
6870,1187,719
6875,1174,723
6880,1185,719
6885,1181,731
6890,1187,735
6895,1180,733
6900,1183,738
6905,1185,744
6910,1182,745
6915,1182,749
6920,1180,758
6925,1186,759
6930,1182,771
6935,1186,766
6940,1190,779
6945,1171,777
6950,1171,788
6955,1165,790
6960,1153,787
6965,1153,798
6970,1153,806
6975,1156,810
6980,1144,818
6985,1145,818
6990,1135,817
6995,1133,824
7000,1141,826
7005,1121,835
7010,1123,837
7015,1119,841
7020,1119,834
7025,1110,843
7030,1117,854
7035,1116,852
7040,1118,855
7045,1119,859
7050,1108,862
7055,1100,855
7060,1096,855
7065,1097,864
7070,1108,864
7075,1097,868
7080,1086,864
7085,1086,862
7090,1088,870
7095,1074,866
7100,1074,868
7105,1091,867
7110,1084,864
7115,1078,870
7120,1064,868
7125,1066,869
7130,1068,865
7135,1063,857
7140,1058,863
7145,1060,864
7150,1052,868
7155,1042,861
7160,1040,863
7165,1044,859
7170,1028,860
7175,1027,854
7180,1024,854
7185,1015,856
7190,1011,853
7195,992,853
7200,989,849
7205,984,848
7210,979,846
7215,969,847
7220,958,846
7225,945,844
7230,945,838
7235,934,839
7240,919,839
7245,919,844
7250,902,843
7255,888,839
7260,886,839
7265,875,832
7270,865,837
7275,860,838
7280,851,835
7285,837,831
7290,830,832
7295,818,831
7300,816,829
7305,802,825
7310,795,824
7315,794,826
7320,793,827
7325,776,825
7330,765,825
7335,767,821
7340,758,823
7345,754,818
7350,755,821
7355,747,818
7360,757,816
7365,746,819
7370,740,810
7375,748,808
7380,748,807
7385,757,809
7390,753,804
7395,758,797
7400,760,797
7405,762,795
7410,777,792
7415,769,785
7420,785,785
7425,790,783
7430,795,775
7435,808,781
7440,816,774
7445,821,768
7450,840,768
7455,843,763
7460,855,760
7465,867,753
7470,881,757
7475,893,749
7480,908,749
7485,917,744
7490,937,735
7495,944,739
7500,961,737
7505,971,726
7510,985,725
7515,988,726
7520,1015,726
7525,1022,719
7530,1039,721
7535,1051,711
7540,1054,714
7545,1072,714
7550,1074,712
7555,1090,711
7560,1100,714
7565,1107,708
7570,1114,711
7575,1129,710
7580,1134,709
7585,1144,705
7590,1145,708
7595,1157,715
7600,1156,705
7605,1158,712
7610,1183,720
7615,1169,710
7620,1184,717
7625,1181,723
7630,1177,724
7635,1185,727
7640,1188,730
7645,1176,736
7650,1181,742
7655,1189,735
7660,1184,741
7665,1189,746
7670,1190,751
7675,1185,752
7680,1187,763
7685,1180,770
7690,1182,772
7695,1180,777
7700,1169,781
7705,1163,786
7710,1165,792
7715,1159,797
7720,1155,797
7725,1157,804
7730,1152,811
7735,1148,814
7740,1152,818
7745,1143,820
7750,1134,821
7755,1135,833
7760,1130,833
7765,1129,839
7770,1127,836
7775,1125,843
7780,1117,849
7785,1111,847
7790,1107,855
7795,1112,856
7800,1112,854
7805,1103,859
7810,1105,864
7815,1087,861
7820,1099,865
7825,1101,867
7830,1094,864
7835,1086,871
7840,1091,870
7845,1075,868
7850,1080,868
7855,1088,865
7860,1081,867
7865,1072,865
7870,1073,874
7875,1067,860
7880,1064,869
7885,1061,866
7890,1059,865
7895,1048,869
7900,1048,859
7905,1055,860
7910,1048,862
7915,1035,861
7920,1033,859
7925,1024,855
7930,1011,856
7935,1025,855
7940,999,855
7945,1000,850
7950,996,857
7955,982,847
7960,986,850
7965,966,838
7970,966,842
7975,949,845
7980,945,842
7985,937,844
7990,919,843
7995,916,838
8000,907,841
8005,908,838
8010,900,839
8015,879,836
8020,866,834
8025,867,832
8029,846,837
8035,839,833
8039,839,833
8045,830,833
8050,820,828
8055,811,830
8060,803,835
8064,795,831
8070,790,830
8074,770,826
8080,783,825
8085,775,824
8090,757,825
8095,761,813
8100,761,820
8105,746,817
8109,756,813
8115,750,814
8119,745,814
8125,757,815
8130,747,802
8135,750,809
8140,753,805
8145,760,806
8150,755,798
8154,754,799
8160,765,797
8164,781,787
8170,781,788
8175,796,788
8180,796,781
8185,794,777
8189,816,776
8195,822,769
8200,834,766
8205,838,769
8210,847,765
8215,856,763
8220,881,757
8225,890,755
8230,896,748
8235,911,744
8240,925,741
8245,935,731
8250,945,731
8255,957,732
8260,976,728
8265,996,722
8270,1001,724
8275,1009,720
8280,1024,716
8285,1044,716
8290,1045,713
8295,1056,713
8300,1063,717
8305,1075,709
8310,1090,709
8315,1106,711
8320,1109,708
8325,1120,716
8330,1135,708
8335,1138,700
8340,1140,709
8345,1152,713
8350,1161,709
8355,1161,714
8360,1164,710
8365,1174,711
8370,1176,714
8375,1177,721
8380,1182,720
8385,1182,726
8390,1181,724
8395,1182,732
8400,1190,735
8405,1184,742
8410,1187,741
8415,1181,745
8420,1179,755
8425,1189,753
8430,1182,760
8435,1177,764
8440,1180,773
8445,1174,769
8450,1168,779
8455,1173,780
8460,1170,789
8465,1166,796
8470,1161,790
8475,1154,801
8480,1159,812
8485,1148,804
8490,1151,818
8495,1144,816
8500,1141,826
8505,1136,827
8510,1134,827
8515,1131,831
8520,1119,839
8525,1125,846
8530,1127,841
8535,1110,844
8540,1111,851
8545,1107,851
8550,1101,856
8555,1100,862
8560,1104,861
8565,1112,857
8570,1092,860
8575,1104,866
8580,1086,863
8585,1084,867
8590,1096,866
8595,1091,870
8600,1083,868
8605,1083,868
8610,1082,869
8615,1088,867
8620,1075,867
8625,1063,865
8630,1076,871
8635,1064,869
8640,1070,871
8645,1057,866
8650,1057,863
8655,1065,864
8660,1045,861
8665,1036,862
8670,1039,863
8675,1028,866
8680,1028,859
8685,1019,854
8690,1015,853
8695,1010,854
8700,1001,853
8705,993,847
8710,982,850
8715,983,852
8720,964,845
8725,954,846
8730,945,843
8735,947,850
8740,933,841
8745,923,842
8750,917,841
8755,908,837
8760,903,838
8765,882,836
8770,885,833
8775,868,837
8780,858,838
8785,850,834
8790,839,836
8795,831,832
8800,817,835
8805,818,827
8810,810,834
8815,799,836
8820,793,829
8825,781,827
8830,779,827
8835,776,827
8840,764,826
8845,766,823
8850,763,821
8855,753,817
8860,757,821
8865,747,823
8870,745,817
8875,746,813
8880,745,811
8885,729,812
8890,746,810
8895,755,801
8900,751,802
8905,763,794
8910,761,799
8915,776,795
8920,774,788
8925,784,788
8930,780,785
8935,793,780
8940,802,782
8945,812,771
8950,822,770
8955,828,771
8960,830,767
8965,854,756
8970,857,760
8975,885,755
8980,888,752
8985,898,748
8990,914,743
8995,925,743
9000,932,739
9005,953,737
9010,969,732
9015,976,731
9020,983,729
9025,995,727
9030,1020,727
9035,1032,716
9040,1038,719
9045,1049,718
9050,1064,715
9055,1075,713
9060,1090,713
9065,1092,711
9070,1106,712
9075,1116,704
9080,1122,709
9085,1121,705
9090,1148,708
9095,1143,707
9100,1151,708
9105,1160,715
9110,1170,712
9115,1178,715
9120,1165,709
9125,1187,716
9130,1170,721
9135,1177,720
9140,1179,722
9145,1187,731
9150,1199,729
9155,1181,734
9160,1178,738
9165,1185,748
9170,1185,745
9175,1181,748
9180,1184,758
9185,1175,758
9190,1180,763
9195,1173,768
9200,1179,774
9205,1170,777
9210,1169,780
9215,1175,789
9220,1166,793
9225,1162,802
9230,1144,806
9235,1150,806
9240,1148,807
9245,1148,817
9250,1139,822
9255,1134,824
9260,1135,833
9265,1136,832
9270,1127,838
9275,1128,836
9280,1117,846
9285,1122,846
9290,1125,855
9295,1118,851
9300,1106,852
9305,1104,856
9310,1110,855
9315,1099,858
9320,1092,862
9325,1099,868
9330,1102,867
9335,1098,864
9340,1104,865
9345,1093,866
9350,1082,866
9355,1083,865
9360,1084,865
9365,1084,872
9370,1074,866
9375,1081,870
9380,1077,869
9385,1073,866
9390,1066,864
9395,1057,862
9400,1051,868
9405,1053,869
9410,1053,865
9415,1047,862
9420,1035,861
9425,1038,860
9430,1033,857
9435,1015,851
9440,1018,858
9445,1011,857
9450,1009,854
9455,998,852
9460,992,846
9465,984,850
9470,984,847
9475,971,846
9480,965,845
9485,955,843
9490,947,839
9495,932,838
9500,933,843
9505,923,838
9510,905,846
9515,894,839
9520,887,839
9525,871,834
9530,855,840
9535,860,838
9540,861,832
9545,842,837
9550,836,832
9555,825,830
9560,813,834
9565,803,833
9570,795,828
9575,792,824
9580,782,829
9585,775,825
9590,779,829
9595,761,823
9600,761,821
9605,752,825
9610,748,816
9615,745,812
9620,739,817
9625,754,813
9630,750,815
9635,749,807
9640,746,804
9645,749,810
9650,758,797
9655,753,798
9660,759,793
9665,769,791
9670,769,790
9675,783,790
9680,789,789
9685,785,778
9690,804,776
9695,814,778
9700,819,773
9705,827,771
9710,836,767
9715,851,765
9720,855,763
9725,873,760
9730,875,751
9735,898,750
9740,907,745
9745,915,740
9750,926,737
9755,945,731
9760,946,736
9765,965,727
9770,983,730
9775,990,725
9780,1010,719
9785,1024,721
9790,1029,716
9795,1034,710
9800,1061,708
9805,1074,711
9810,1079,712
9815,1095,709
9820,1097,709
9825,1109,701
9830,1108,709
9835,1128,713
9840,1134,702
9845,1138,701
9850,1150,711
9855,1154,711
9860,1162,716
9865,1170,708
9870,1162,712
9875,1164,719
9880,1180,723
9885,1172,720
9890,1185,725
9895,1182,724
9900,1192,728
9905,1186,732
9910,1184,739
9915,1190,742
9920,1178,747
9925,1178,741
9930,1182,759
9935,1178,755
9940,1174,758
9945,1180,766
9950,1176,776
9955,1172,777
9960,1172,779
9965,1167,786
9970,1167,787
9975,1166,794
9980,1151,800
9985,1148,804
9990,1155,808
9995,1143,805
10000,1143,822
10005,1136,827
10010,1129,826
10015,1134,826
10020,1130,833
10025,1138,835
10030,1126,838
10035,1123,846
10040,1125,843
10045,1116,853
10050,1118,851
10055,1105,852
10060,1115,857
10065,1104,858
10070,1106,862
10075,1095,865
10080,1093,864
10085,1097,864
10090,1091,869
10095,1092,867
10100,1088,869
10105,1090,868
10110,1080,868
10115,1087,863
10120,1070,873
10125,1084,868
10130,1074,867
10135,1082,872
10140,1057,871
10145,1067,862
10150,1057,864
10155,1060,870
10160,1056,868
10165,1058,860
10170,1048,857
10175,1039,859
10180,1028,864
10185,1024,858
10190,1027,853
10195,1027,852
10200,1003,857
10205,1001,848
10210,988,849
10215,994,848
10220,965,845
10225,972,846
10230,967,848
10235,951,841
10240,947,844
10245,950,845
10250,929,846
10255,909,844
10260,918,845
10265,907,840
10270,903,839
10275,881,841
10280,876,841
10285,863,832
10290,852,837
10295,843,832
10300,826,832
10305,821,832
10310,814,832
10315,803,828
10320,809,832
10325,795,827
10330,782,828
10335,784,830
10340,777,826
10345,774,822
10350,762,820
10355,767,819
10360,764,819
10365,744,821
10370,753,815
10375,750,815
10380,755,811
10385,742,806
10390,748,809
10395,758,808
10400,755,805
10405,753,801
10410,763,795
10415,761,802
10420,771,793
10425,780,789
10430,777,792
10435,787,785
10440,793,782
10445,802,779
10450,816,781
10455,815,767
10460,831,770
10465,841,763
10470,854,764
10475,861,758
10480,878,753
10485,886,753
10490,897,747
10495,905,752
10500,916,744
10505,932,743
10510,945,737
10515,962,734
10520,976,723
10525,984,719
10530,996,722
10535,1003,720
10540,1029,721
10545,1029,717
10550,1055,720
10555,1059,719
10560,1066,709
10565,1081,709
10570,1091,712
10575,1098,711
10580,1105,706
10585,1118,706
10590,1126,711
10595,1145,708
10600,1150,706
10605,1155,708
10610,1157,712
10615,1164,708
10620,1164,715
10625,1174,713
10630,1182,710
10635,1174,722
10640,1170,719
10645,1183,722
10650,1188,723
10655,1190,731
10660,1178,735
10665,1192,738
10670,1191,739
10675,1186,743
10680,1174,752
10685,1179,760
10690,1191,759
10695,1182,764
10700,1178,770
10705,1168,773
10710,1169,777
10715,1169,784
10720,1168,785
10725,1161,790
10730,1174,797
10735,1161,799
10740,1145,804
10745,1157,811
10750,1143,813
10755,1147,815
10760,1138,823
10765,1139,824
10770,1130,831
10775,1134,840
10780,1129,835
10785,1117,836
10790,1108,838
10795,1121,850
10800,1115,853
10805,1107,848
10810,1110,854
10815,1107,860
10820,1102,856
10825,1106,861
10830,1100,861
10835,1100,869
10840,1090,869
10845,1085,873
10850,1080,865
10855,1099,874
10860,1086,870
10865,1077,870
10870,1081,872
10875,1074,864
10880,1084,868
10885,1068,868
10890,1073,866
10895,1070,874
10900,1062,863
10905,1065,866
10910,1050,863
10915,1048,865
10920,1057,863
10925,1041,856
10930,1029,851
10935,1037,856
10940,1035,859
10945,1029,851
10950,1024,849
10955,1006,863
10960,996,852
10965,990,857
10970,983,849
10975,975,846
10980,969,851
10985,964,844
10990,957,849
10995,938,843
11000,926,843
11005,925,842
11010,912,845
11015,905,843
11020,900,839
11025,881,835
11030,876,835
11035,858,834
11040,854,833
11045,856,836
11050,846,832
11055,833,830
11060,825,835
11065,820,837
11070,805,835
11075,799,829
11080,791,834
11085,790,831
11090,780,823
11095,775,826
11100,768,828
11105,763,819
11110,751,822
11115,764,818
11120,760,820
11125,753,811
11130,750,817
11135,762,811
11140,760,815
11145,750,806
11150,748,808
11155,760,805
11160,756,800
11165,758,798
11170,769,799
11175,763,800
11180,780,789
11185,777,784
11190,781,788
11195,788,786
11200,799,779
11205,819,780
11210,827,778
11215,828,766
11220,839,762
11225,853,759
11230,868,758
11235,876,753
11240,896,752
11245,901,744
11250,913,749
11255,925,740
11260,937,736
11265,946,735
11270,960,734
11275,973,731
11280,989,723
11285,1004,722
11290,1013,721
11295,1021,720
11300,1038,712
11305,1044,721
11310,1068,713
11315,1083,710
11320,1081,715
11325,1096,708
11330,1101,709
11335,1112,706
11340,1122,704
11345,1129,703
11350,1137,707
11355,1149,714
11360,1146,713
11365,1156,710
11370,1166,718
11375,1171,710
11380,1172,715
11385,1173,716
11390,1179,720
11395,1185,725
11400,1189,724
11405,1179,731
11410,1197,735
11415,1195,734
11420,1187,739
11425,1189,742
11430,1188,752
11435,1187,752
11440,1178,759
11445,1183,765
11450,1176,762
11455,1177,765
11460,1178,770
11465,1180,776
11470,1166,779
11475,1161,791
11480,1160,789
11485,1160,798
11490,1154,799
11495,1157,808
11500,1139,816
11505,1147,814
11510,1151,818
11515,1143,824
11520,1144,825
11525,1138,831
11530,1130,836
11535,1122,839
11540,1120,843
11545,1122,844
11550,1120,848
11555,1104,851
11560,1114,855
11565,1115,858
11570,1102,863
11575,1101,861
11580,1101,855
11585,1092,866
11590,1090,862
11595,1099,866
11600,1095,868
11605,1090,863
11610,1094,867
11615,1086,868
11620,1079,863
11625,1078,866
11630,1076,867
11635,1083,869
11640,1068,873
11645,1069,862
11650,1063,871
11655,1068,863
11660,1058,861
11665,1056,861
11670,1053,861
11675,1047,867
11680,1046,864
11685,1034,861
11690,1028,859
11695,1026,859
11700,1023,856
11705,1020,858
11710,1011,848
11715,1003,849
11720,994,848
11725,994,847
11730,974,848
11735,971,847
11740,961,848
11745,952,839
11750,944,845
11755,936,843
11760,933,839
11765,919,841
11770,897,842
11775,897,843
11780,889,840
11785,870,837
11790,869,836
11795,862,834
11800,846,832
11805,834,835
11810,829,836
11815,825,826
11820,804,830
11825,794,825
11830,801,832
11835,791,828
11840,775,826
11845,777,826
11850,767,827
11855,769,826
11860,752,821
11865,755,816
11870,758,820
11875,756,820
11880,761,806
11885,743,813
11890,752,813
11895,741,809
11900,751,809
11905,741,802
11910,752,806
11915,756,804
11920,753,799
11925,768,796
11930,771,791
11935,780,791
11940,779,786
11945,781,775
11950,800,779
11955,809,774
11960,815,777
11965,817,767
11970,836,765
11975,848,758
11980,860,761
11985,860,747
11990,884,755
11995,885,747
12000,895,746
12005,907,749
12010,927,740
12015,941,740
12020,950,734
12025,970,731
12030,984,727
12035,996,728
12040,1003,724
12045,1018,719
12050,1033,716
12055,1047,718
12060,1046,710
12065,1069,710
12070,1087,707
12075,1090,705
12080,1095,707
12085,1112,706
12090,1116,711
12095,1128,708
12100,1131,703
12105,1139,707
12110,1150,704
12115,1149,708
12120,1160,707
12125,1162,716
12130,1169,717
12135,1179,715
12140,1184,718
12145,1189,722
12150,1192,721
12155,1181,726
12160,1184,729
12165,1182,735
12170,1194,739
12175,1188,741
12180,1190,744
12185,1188,748
12190,1194,754
12195,1184,753
12200,1186,758
12205,1180,763
12210,1190,771
12215,1178,775
12220,1177,779
12225,1161,780
12230,1173,792
12235,1162,799
12240,1154,799
12245,1154,801
12250,1147,806
12255,1142,809
12260,1147,821
12265,1136,820
12270,1138,824
12275,1133,838
12280,1123,837
12285,1131,836
12290,1128,837
12295,1123,843
12300,1114,850
12305,1115,849
12310,1115,853
12315,1111,854
12320,1106,853
12325,1106,861
12330,1091,858
12335,1092,864
12340,1102,864
12345,1094,861
12350,1097,866
12355,1095,872
12360,1098,865
12365,1084,867
12370,1091,868
12375,1078,866
12380,1074,874
12385,1073,870
12390,1079,863
12395,1070,870
12400,1070,866
12405,1066,865
12410,1058,866
12415,1051,864
12420,1053,865
12425,1050,859
12430,1027,860
12435,1040,860
12440,1031,860
12445,1034,861
12450,1017,852
12455,1024,854
12460,1002,849
12465,1000,850
12470,997,852
12475,986,847
12480,972,848
12485,969,846
12490,967,846
12495,957,845
12500,944,839
12505,943,846
12510,933,841
12515,917,839
12520,919,836
12525,902,838
12530,880,834
12535,884,835
12540,883,838
12545,864,834
12550,852,831
12555,845,837
12560,831,830
12565,826,828
12570,822,831
12575,815,833
12580,797,830
12585,796,824
12590,781,827
12595,775,829
12600,780,824
12605,777,827
12610,776,820
12615,756,825
12620,756,820
12625,750,816
12630,753,811
12635,750,816
12640,739,809
12645,751,811
12650,753,808
12655,750,809
12660,751,807
12665,745,804
12670,766,800
12675,761,803
12680,771,800
12685,771,793
12690,781,794
12695,787,785
12700,791,778
12705,788,775
12710,817,776
12715,818,776
12720,835,770
12725,844,763
12730,846,762
12735,859,762
12740,884,755
12745,890,756
12750,897,752
12755,902,747
12760,924,743
12765,936,740
12770,955,737
12775,951,731
12780,976,736
12785,984,731
12790,997,718
12795,1002,721
12800,1026,717
12805,1036,722
12810,1054,714
12815,1062,710
12820,1070,716
12825,1080,710
12830,1093,706
12835,1101,707
12840,1111,703
12845,1123,707
12850,1124,709
12855,1141,704
12860,1147,708
12865,1151,710
12870,1145,710
12875,1152,711
12880,1174,716
12885,1173,710
12890,1176,717
12895,1176,718
12900,1180,723
12905,1179,722
12910,1191,720
12915,1190,729
12920,1185,734
12925,1199,737
12930,1194,736
12935,1185,743
12940,1186,754
12945,1189,752
12950,1186,756
12955,1181,762
12960,1173,771
12965,1168,776
12970,1177,783
12975,1176,783
12980,1169,791
12985,1167,794
12990,1163,795
12995,1163,797
13000,1147,807
13005,1153,813
13010,1141,816
13015,1143,824
13020,1146,819
13025,1137,823
13030,1127,826
13035,1128,837
13040,1132,839
13045,1128,840
13050,1118,850
13055,1112,844
13060,1126,848
13065,1116,852
13070,1109,857
13075,1107,865
13080,1102,861
13085,1103,862
13090,1103,864
13095,1090,870
13100,1097,863
13105,1094,871
13110,1087,868
13115,1087,869
13120,1083,870
13125,1089,871
13130,1072,872
13135,1087,868
13140,1079,866
13145,1066,868
13150,1067,866
13155,1067,865
13160,1055,865
13165,1058,867
13170,1054,862
13175,1046,863
13180,1038,863
13185,1044,858
13190,1035,861
13195,1034,855
13200,1028,860
13205,1022,852
13210,1012,851
13215,1009,854
13220,1001,855
13225,992,854
13230,980,855
13235,984,851
13240,966,848
13245,962,849
13250,955,847
13255,946,847
13260,940,843
13265,925,845
13270,911,837
13275,904,836
13280,898,834
13285,887,838
13290,871,835
13295,868,831
13300,857,834
13305,855,835
13310,843,830
13315,825,831
13320,831,826
13325,817,829
13330,808,829
13335,801,832
13340,793,830
13345,788,820
13350,792,826
13355,776,824
13360,766,827
13365,769,819
13370,759,819
13375,757,821
13380,752,818
13385,746,818
13390,756,815
13395,747,813
13400,752,811
13405,747,811
13410,749,811
13415,759,813
13420,760,804
13425,756,800
13430,761,799
13435,765,796
13440,771,790
13445,775,782
13450,783,781
13455,792,785
13460,803,785
13465,813,776
13470,822,778
13475,825,764
13480,835,766
13485,848,755
13490,862,756
13495,876,754
13500,884,744
13505,902,746
13510,915,747
13515,921,736
13520,944,737
13525,952,736
13530,975,735
13535,981,728
13540,982,721
13545,1006,726
13550,1023,722
13555,1020,720
13560,1041,719
13565,1051,714
13570,1059,707
13575,1077,710
13580,1081,710
13585,1103,711
13590,1091,704
13595,1103,706
13600,1123,709
13605,1140,710
13610,1137,706
13615,1148,708
13620,1168,710
13625,1152,707
13630,1162,715
13635,1166,710
13640,1174,719
13645,1182,714
13650,1180,717
13655,1179,722
13660,1188,726
13665,1188,729
13670,1192,732
13675,1194,735
13680,1174,742
13685,1196,746
13690,1186,752
13695,1181,747
13700,1181,755
13705,1183,761
13710,1184,767
13715,1179,769
13720,1177,778
13725,1163,778
13730,1173,788
13735,1163,786
13740,1165,795
13745,1172,798
13750,1149,806
13755,1142,803
13760,1148,809
13765,1140,810
13770,1140,818
13775,1141,824
13780,1132,822
13785,1132,832
13790,1121,835
13795,1131,838
13800,1130,845
13805,1121,850
13810,1115,848
13815,1119,851
13820,1112,852
13825,1112,854
13830,1101,859
13835,1111,860
13840,1098,869
13845,1095,868
13850,1095,863
13855,1093,867
13860,1087,865
13865,1087,863
13870,1086,868
13875,1087,868
13880,1078,867
13885,1077,868
13890,1076,864
13895,1081,870
13900,1073,865
13905,1076,865
13910,1061,861
13915,1071,864
13920,1054,856
13925,1058,866
13930,1050,861
13935,1046,862
13940,1040,860
13945,1041,859
13950,1029,855
13955,1020,856
13960,1024,856
13965,1012,855
13970,1007,852
13975,998,850
13980,984,851
13985,982,851
13990,974,852
13995,962,848
14000,954,845
14005,945,847
14010,955,845
14015,938,840
14020,920,845
14025,924,840
14030,901,839
14035,891,837
14040,892,836
14045,877,834
14050,873,830
14055,864,835
14060,839,837
14065,848,838
14070,818,833
14075,829,834
14080,815,835
14085,806,830
14090,796,834
14095,793,827
14100,785,827
14105,774,827
14110,780,826
14115,772,825
14120,767,817
14125,768,819
14130,763,811
14135,747,813
14140,746,809
14145,736,813
14150,749,812
14155,754,807
14160,753,811
14165,758,808
14170,755,810
14175,760,802
14180,763,801
14185,765,795
14190,773,792
14195,767,788
14200,780,791
14205,792,785
14210,787,780
14215,806,771
14220,813,771
14225,827,767
14230,830,766
14235,847,764
14240,856,758
14245,879,756
14250,885,755
14255,898,755
14260,918,749
14265,914,741
14270,935,735
14275,938,737
14280,953,741
14285,973,732
14290,984,725
14295,999,724
14300,1000,716
14305,1023,722
14310,1035,712
14315,1048,716
14320,1052,715
14325,1069,717
14330,1083,713
14335,1085,712
14340,1104,708
14345,1106,710
14350,1113,701
14355,1114,710
14360,1146,704
14365,1139,704
14370,1150,705
14375,1154,706
14380,1165,710
14385,1166,709
14390,1166,708
14395,1175,711
14400,1184,719
14405,1182,721
14410,1180,722
14415,1182,730
14420,1186,731
14425,1180,736
14430,1189,733
14435,1180,740
14440,1186,746
14445,1187,747
14450,1186,751
14455,1183,758
14460,1184,760
14465,1183,765
14470,1174,770
14475,1179,774
14480,1172,785
14485,1166,788
14490,1165,787
14495,1174,795
14500,1165,796
14505,1161,799
14510,1149,810
14515,1156,810
14520,1147,814
14525,1149,823
14530,1136,821
14535,1139,823
14540,1129,837
14545,1120,840
14550,1127,843
14555,1119,846
14560,1130,852
14565,1118,848
14570,1110,852
14575,1106,855
14580,1109,859
14585,1098,861
14590,1105,864
14595,1095,857
14600,1101,863
14605,1091,870
14610,1096,864
14615,1094,865
14620,1083,870
14625,1090,871
14630,1089,866
14635,1082,863
14640,1080,865
14645,1080,866
14650,1079,868
14655,1071,864
14660,1068,870
14665,1057,862
14670,1061,867
14675,1062,864
14680,1050,861
14685,1044,857
14690,1043,864
14695,1038,857
14700,1033,862
14705,1028,862
14710,1021,863
14715,1010,857
14720,1004,853
14725,997,851
14730,1005,845
14735,983,851
14740,971,848
14745,968,851
14750,971,841
14755,960,845
14760,960,849
14765,935,843
14770,930,843
14775,916,839
14780,904,838
14785,913,841
14790,897,841
14795,881,836
14800,866,831
14805,862,835
14810,851,835
14815,843,835
14820,834,828
14825,834,827
14830,810,831
14835,805,832
14840,808,830
14845,789,828
14850,785,835
14855,778,825
14860,775,826
14865,785,820
14870,764,816
14875,756,821
14880,764,822
14885,756,820
14890,750,818
14895,748,819
14900,741,811
14905,754,815
14910,757,812
14915,752,807
14920,751,804
14925,763,804
14930,762,806
14935,753,796
14940,757,793
14945,764,794
14950,790,792
14955,774,789
14960,783,780
14965,793,780
14970,811,777
14975,821,769
14980,830,772
14985,830,769
14990,853,764
14995,856,758
15000,863,754
15005,886,751
15010,898,747
15015,899,750
15020,928,741
15025,928,736
15030,953,735
15035,966,729
15040,973,731
15045,988,730
15050,994,725
15055,1004,713
15060,1019,715
15065,1041,718
15070,1041,712
15075,1066,711
15080,1069,707
15085,1081,712
15090,1072,708
15095,1095,704
15100,1112,714
15105,1115,703
15110,1133,711
15115,1137,707
15120,1147,703
15125,1160,709
15130,1162,705
15135,1158,712
15140,1166,712
15145,1163,714
15150,1175,714
15155,1166,719
15160,1176,727
15165,1183,724
15170,1180,729
15175,1191,730
15180,1178,735
15185,1188,736
15190,1189,744
15195,1192,743
15200,1191,752
15205,1189,754
15210,1187,761
15215,1186,760
15220,1179,764
15225,1175,773
15230,1175,776
15235,1175,783
15240,1162,783
15245,1163,783
15250,1157,792
15255,1164,802
15260,1154,809
15265,1150,810
15270,1145,811
15275,1145,812
15280,1137,820
15285,1130,824
15290,1125,831
15295,1118,834
15300,1128,842
15305,1127,845
15310,1118,840
15315,1120,845
15320,1117,851
15325,1108,855
15330,1107,860
15335,1103,863
15340,1108,862
15345,1104,857
15350,1101,857
15355,1101,853
15360,1095,869
15365,1082,871
15370,1091,864
15375,1089,861
15380,1087,866
15385,1092,871
15390,1079,868
15395,1083,863
15400,1077,871
15405,1074,869
15410,1070,865
15415,1078,872
15420,1068,863
15425,1054,867
15430,1056,865
15435,1048,858
15440,1045,863
15445,1048,862
15450,1040,855
15455,1038,859
15460,1025,859
15465,1021,856
15470,1006,852
15475,1006,853
15480,1007,854
15485,990,848
15490,979,850
15495,969,852
15500,976,846
15505,966,849
15510,951,846
15515,950,843
15520,938,840
15525,932,843
15530,914,842
15535,902,835
15540,894,838
15545,885,840
15550,884,836
15555,870,839
15560,856,842
15565,852,834
15570,844,836
15575,832,836
15580,822,835
15585,809,830
15590,805,836
15595,796,826
15600,786,828
15605,776,829
15610,779,829
15615,770,831
15620,766,820
15625,765,823
15630,759,822
15635,761,816
15640,751,814
15645,752,815
15650,745,818
15655,746,810
15660,747,810
15665,741,811
15670,743,805
15675,761,804
15680,745,806
15685,754,799
15690,765,801
15695,764,797
15700,779,792
15705,788,790
15710,791,789
15715,791,780
15720,797,779
15725,815,780
15730,817,766
15735,832,775
15740,844,761
15745,841,757
15750,864,761
15755,868,753
15760,893,754
15765,905,746
15770,910,742
15775,926,744
15780,938,737
15785,946,732
15790,958,725
15795,970,728
15800,991,725
15805,999,720
15810,1011,721
15815,1032,713
15820,1034,721
15825,1051,711
15830,1069,718
15835,1076,712
15840,1091,711
15845,1091,702
15850,1107,702
15855,1114,706
15860,1116,712
15865,1135,707
15870,1139,706
15875,1140,708
15880,1151,709
15885,1153,710
15890,1170,715
15895,1164,709
15900,1167,715
15905,1186,717
15910,1172,715
15915,1177,719
15920,1191,725
15925,1179,726
15930,1188,726
15935,1183,733
15940,1188,736
15945,1189,743
15950,1179,747
15955,1186,749
15960,1176,760
15965,1184,764
15970,1174,761
15975,1187,768
15980,1167,775
15985,1173,777
15990,1172,784
15995,1167,790
16000,1167,786
16004,1160,797
16010,1169,800
16015,1154,811
16020,1145,808
16024,1143,817
16030,1146,819
16035,1144,823
16040,1124,827
16045,1132,834
16050,1133,837
16055,1122,837
16059,1125,841
16065,1109,850
16070,1113,849
16075,1109,853
16079,1111,847
16085,1107,854
16090,1112,859
16094,1103,860
16100,1100,864
16105,1100,864
16110,1096,865
16114,1092,864
16120,1091,868
16125,1091,865
16129,1082,863
16135,1083,867
16140,1084,866
16145,1077,870
16149,1078,869
16155,1069,866
16160,1077,865
16165,1074,867
16170,1065,868
16175,1065,868
16180,1053,866
16184,1057,867
16190,1045,863
16195,1045,865
16200,1045,867
16204,1022,861
16210,1027,862
16215,1026,858
16219,1018,856
16225,1010,849
16230,1012,851
16235,1000,855
16239,993,853
16245,989,846
16250,965,848
16254,976,846
16260,954,845
16265,954,844
16270,944,848
16274,935,842
16280,928,839
16285,908,835
16290,910,835
16295,901,839
16300,881,837
16305,874,834
16309,868,836
16315,862,837
16320,851,838
16325,838,835
16329,828,830
16335,819,827
16340,813,833
16344,810,829
16350,793,826
16355,795,826
16360,782,825
16364,780,829
16370,767,823
16375,760,829
16379,768,825
16385,756,821
16390,750,825
16395,748,817
16400,741,818
16405,763,815
16410,753,812
16415,747,810
16420,750,804
16425,743,805
16430,750,803
16435,754,805
16440,765,794
16445,759,796
16450,770,796
16455,775,794
16460,770,782
16465,791,782
16470,796,779
16475,804,775
16480,813,770
16485,828,770
16490,835,767
16495,843,762
16500,859,753
16505,863,758
16510,880,755
16515,901,748
16520,901,745
16525,918,743
16530,926,743
16535,937,733
16540,959,732
16545,970,728
16550,984,723
16555,994,722
16560,1009,721
16565,1024,719
16570,1030,716
16575,1047,716
16580,1051,714
16585,1063,713
16590,1072,717
16595,1091,713
16600,1097,704
16605,1106,710
16610,1125,703
16615,1123,711
16620,1131,703
16625,1147,704
16630,1144,709
16635,1157,712
16640,1171,711
16645,1165,708
16650,1163,709
16655,1183,713
16660,1179,722
16665,1182,721
16670,1179,726
16675,1186,729
16680,1186,732
16685,1185,732
16690,1180,735
16695,1188,740
16700,1191,741
16705,1195,744
16710,1189,755
16715,1188,765
16720,1179,758
16725,1176,763
16730,1173,775
16735,1172,773
16740,1174,780
16745,1169,781
16750,1169,794
16755,1158,795
16760,1161,798
16765,1161,809
16770,1151,809
16775,1150,815
16780,1144,816
16785,1141,827
16790,1130,825
16795,1141,826
16800,1134,837
16805,1131,840
16810,1125,841
16815,1120,842
16820,1121,846
16825,1113,847
16830,1114,850
16835,1116,855
16840,1110,848
16845,1101,864
16850,1103,857
16855,1093,864
16860,1100,865
16865,1096,866
16870,1092,866
16875,1098,867
16880,1086,870
16885,1083,867
16890,1090,864
16895,1082,874
16900,1079,871
16905,1078,866
16910,1067,869
16915,1077,867
16920,1073,864
16925,1066,866
16930,1063,865
16935,1065,868
16940,1052,865
16945,1047,858
16950,1043,857
16955,1038,860
16960,1040,859
16965,1025,862
16970,1019,857
16975,1016,859
16980,1013,852
16985,999,858
16990,1005,855
16995,982,852
17000,981,846
17005,967,849
17010,968,854
17015,968,846
17020,956,843
17025,935,835
17030,928,847
17035,925,838
17040,915,841
17045,902,839
17050,887,837
17055,881,837
17060,877,830
17065,876,838
17070,852,837
17075,853,835
17080,832,832
17085,825,831
17090,823,830
17095,803,827
17100,803,831
17105,799,828
17110,786,827
17115,786,823
17120,786,825
17125,771,825
17130,768,823
17135,759,822
17140,758,821
17145,753,818
17150,751,814
17155,756,817
17160,746,815
17165,746,812
17170,756,808
17175,745,808
17180,754,805
17185,760,802
17190,750,803
17195,764,802
17200,771,795
17205,764,792
17210,772,785
17215,776,786
17220,795,784
17225,798,778
17230,809,777
17235,819,774
17240,826,769
17245,842,767
17250,837,763
17255,856,760
17260,866,758
17265,880,755
17270,893,751
17275,900,745
17280,934,744
17285,936,742
17290,947,736
17295,950,733
17300,976,729
17305,992,727
17310,990,723
17315,1008,721
17320,1023,720
17325,1030,716
17330,1043,715
17335,1055,713
17340,1063,711
17345,1075,709
17350,1089,712
17355,1091,706
17360,1107,706
17365,1126,705
17370,1137,707
17375,1136,711
17380,1144,702
17385,1150,711
17390,1147,714
17395,1160,719
17400,1158,713
17405,1170,718
17410,1159,717
17415,1183,719
17420,1167,717
17425,1192,723
17430,1186,725
17435,1192,731
17440,1188,727
17445,1192,738
17450,1183,744
17455,1191,745
17460,1179,746
17465,1183,749
17470,1175,758
17475,1176,767
17480,1181,770
17485,1172,770
17490,1173,780
17495,1170,779
17500,1167,785
17505,1160,790
17510,1167,794
17515,1156,802
17520,1152,805
17525,1149,809
17530,1152,813
17535,1141,814
17540,1146,824
17545,1131,820
17550,1130,836
17555,1128,834
17560,1123,841
17565,1125,846
17570,1129,844
17575,1123,842
17580,1117,855
17585,1106,856
17590,1112,855
17595,1107,853
17600,1103,858
17605,1110,859
17610,1102,864
17615,1105,867
17620,1091,863
17625,1087,874
17630,1086,867
17635,1087,862
17640,1088,866
17645,1082,867
17650,1078,873
17655,1086,867
17660,1078,867
17665,1075,866
17670,1068,869
17675,1069,870
17680,1056,866
17685,1062,869
17690,1056,865
17695,1053,862
17700,1050,859
17705,1035,856
17710,1035,861
17715,1029,856
17720,1024,857
17725,1019,856
17730,1023,852
17735,1013,856
17740,993,847
17745,992,849
17750,986,850
17755,979,847
17760,961,848
17765,970,848
17770,958,844
17775,947,849
17780,937,841
17785,927,837
17790,918,844
17795,909,840
17800,905,842
17805,892,840
17810,883,838
17815,868,839
17820,857,836
17825,855,838
17830,837,831
17835,829,834
17840,830,832
17845,804,833
17850,806,828
17855,803,833
17860,795,831
17865,786,828
17870,787,824
17875,774,820
17880,774,825
17885,765,823
17890,756,820
17895,755,822
17900,749,820
17905,754,814
17910,746,819
17915,749,820
17920,742,817
17925,744,813
17930,749,804
17935,751,800
17940,753,802
17945,764,799
17950,759,799
17955,769,796
17960,767,796
17965,791,785
17970,773,789
17975,785,786
17980,803,783
17985,807,777
17990,820,772
17995,826,775
18000,842,773
18005,843,757
18010,867,753
18015,869,752
18020,890,747
18025,898,744
18030,908,747
18035,937,740
18040,936,740
18045,952,737
18050,954,734
18055,971,723
18060,980,727
18065,1004,726
18070,1019,726
18075,1025,714
18080,1027,717
18085,1044,723
18090,1055,708
18095,1073,711
18100,1080,705
18105,1092,704
18110,1104,702
18115,1117,708
18120,1111,706
18125,1129,707
18130,1137,706
18135,1140,709
18140,1148,707
18145,1154,705
18150,1170,712
18155,1164,718
18160,1171,713
18165,1185,719
18170,1175,717
18175,1181,727
18180,1171,722
18185,1193,731
18190,1189,727
18195,1181,736
18200,1185,742
18205,1197,746
18210,1190,750
18215,1185,748
18220,1185,751
18225,1174,759
18230,1174,762
18235,1180,771
18240,1179,773
18245,1169,775
18250,1176,778
18255,1166,788
18260,1162,793
18265,1154,792
18270,1158,800
18275,1151,810
18280,1146,809
18285,1145,818
18290,1144,821
18295,1142,822
18300,1138,822
18305,1132,835
18310,1133,840
18315,1124,842
18320,1117,844
18325,1127,847
18330,1118,852
18335,1114,855
18340,1117,853
18345,1111,851
18350,1101,856
18355,1106,854
18360,1093,856
18365,1108,863
18370,1099,867
18375,1090,865
18380,1097,871
18385,1094,867
18390,1077,865
18395,1091,871
18400,1077,866
18405,1071,866
18410,1081,864
18415,1086,871
18420,1066,867
18425,1071,869
18430,1072,863
18435,1057,868
18440,1061,861
18445,1052,861
18450,1056,863
18455,1040,859
18460,1043,860
18465,1030,855
18470,1038,854
18475,1028,856
18480,1018,855
18485,1009,854
18490,1004,851
18495,992,856
18500,987,853
18505,987,857
18510,975,843
18515,970,848
18520,949,845
18525,951,847
18530,937,840
18535,929,845
18540,933,838
18545,916,842
18550,907,836
18555,903,836
18560,889,835
18565,886,834
18570,871,833
18575,851,834
18580,853,835
18585,840,837
18590,833,835
18595,822,836
18600,813,829
18605,807,829
18610,797,832
18615,786,830
18620,787,826
18625,772,829
18630,766,823
18635,761,827
18640,765,822
18645,754,820
18650,748,816
18655,748,820
18660,752,809
18665,739,811
18670,746,812
18675,740,816
18680,742,810
18685,745,802
18690,754,806
18695,752,800
18700,765,801
18705,744,794
18710,764,789
18715,777,789
18720,782,785
18725,795,782
18730,795,779
18735,799,783
18740,819,777
18745,825,768
18750,836,770
18755,841,761
18760,844,757
18765,867,759
18770,892,755
18775,893,747
18780,901,747
18785,916,741
18790,928,745
18795,943,736
18800,951,733
18805,970,735
18810,988,725
18815,992,730
18820,1006,720
18825,1022,718
18830,1024,721
18835,1038,715
18840,1060,716
18845,1063,709
18850,1077,710
18855,1085,713
18860,1095,705
18865,1110,706
18870,1118,707
18875,1124,706
18880,1124,706
18885,1136,708
18890,1143,710
18895,1153,705
18900,1158,709
18905,1156,714
18910,1165,712
18915,1182,713
18920,1180,721
18925,1177,718
18930,1182,719
18935,1180,723
18940,1182,730
18945,1194,731
18950,1185,734
18955,1190,745
18960,1188,739
18965,1188,744
18970,1193,750
18975,1189,762
18980,1188,758
18985,1180,771
18990,1183,770
18995,1173,779
19000,1180,782
19005,1169,785
19010,1171,783
19015,1166,795
19020,1157,797
19025,1149,803
19030,1157,807
19035,1145,814
19040,1154,810
19045,1145,819
19050,1139,823
19055,1138,829
19060,1133,838
19065,1143,839
19070,1127,836
19075,1119,838
19080,1120,847
19085,1116,844
19090,1116,848
19095,1103,853
19100,1111,857
19105,1113,859
19110,1111,866
19115,1100,860
19120,1100,861
19125,1091,863
19130,1090,867
19135,1095,867
19140,1095,865
19145,1090,869
19150,1077,866
19155,1084,869
19160,1079,864
19165,1077,867
19170,1076,868
19175,1074,863
19180,1060,868
19185,1069,868
19190,1060,866
19195,1046,863
19200,1054,864
19205,1047,860
19210,1041,863
19215,1047,862
19220,1045,857
19225,1034,859
19230,1015,859
19235,1017,857
19240,1008,854
19245,1004,852
19250,1000,852
19255,996,849
19260,979,849
19265,974,850
19270,960,849
19275,949,848
19280,950,845
19285,937,845
19290,926,849
19295,918,836
19300,905,837
19305,898,839
19310,896,840
19315,883,840
19320,875,839
19325,867,831
19330,856,832
19335,853,835
19340,836,835
19345,819,828
19350,814,831
19355,817,836
19360,811,828
19365,792,830
19370,786,827
19375,784,826
19380,772,825
19385,776,825
19390,763,824
19395,762,825
19400,750,818
19405,758,820
19410,746,815
19415,751,811
19420,745,809
19425,753,815
19430,747,810
19435,753,808
19440,749,803
19445,763,805
19450,748,798
19455,759,796
19460,758,793
19465,774,789
19470,782,792
19475,783,784
19480,792,780
19485,801,780
19490,807,779
19495,804,775
19500,828,771
19505,833,767
19510,849,764
19515,866,758
19520,866,758
19525,887,753
19530,887,748
19535,916,745
19540,912,737
19545,936,738
19550,950,733
19555,962,734
19560,960,731
19565,980,727
19570,1006,723
19575,1004,723
19580,1018,718
19585,1041,717
19590,1045,714
19595,1054,717
19600,1069,710
19605,1069,711
19610,1089,705
19615,1098,706
19620,1105,702
19625,1117,710
19630,1129,707
19635,1136,704
19640,1147,709
19645,1150,709
19650,1149,709
19655,1164,708
19660,1170,711
19665,1166,720
19670,1182,715
19675,1185,717
19680,1173,719
19685,1181,722
19690,1179,725
19695,1192,728
19700,1192,734
19705,1192,734
19710,1189,739
19715,1199,745
19720,1193,750
19725,1179,756
19730,1188,761
19735,1185,760
19740,1176,764
19745,1186,775
19750,1178,770
19755,1167,782
19760,1183,783
19765,1164,789
19770,1159,799
19775,1166,801
19780,1159,800
19785,1146,807
19790,1148,815
19795,1145,811
19800,1133,820
19805,1147,824
19810,1134,833
19815,1136,830
19820,1130,835
19825,1121,836
19830,1118,848
19835,1117,848
19840,1115,846
19845,1108,851
19850,1109,854
19855,1106,861
19860,1106,859
19865,1106,862
19870,1109,862
19875,1096,860
19880,1097,862
19885,1085,866
19890,1101,859
19895,1093,867
19900,1081,865
19905,1086,866
19910,1088,869
19915,1087,867
19920,1074,867
19925,1075,872
19930,1076,868
19935,1066,871
19940,1061,870
19945,1061,861
19950,1059,866
19955,1049,864
19960,1042,867
19965,1034,862
19970,1036,863
19975,1034,853
19980,1023,857
19985,1022,859
19990,1007,857
19995,1005,853
20000,1003,845
20005,1004,853
20010,984,856
20015,979,843
20020,974,840
20025,968,849
20030,954,851
20035,943,842
20040,937,841
20045,935,838
20050,913,837
20055,914,837
20060,901,844
20065,893,839
20070,884,840
20075,871,835
20080,859,838
20085,853,835
20090,834,835
20095,831,837
20100,828,835
20105,810,828
20110,804,829
20115,805,825
20120,788,830
20125,781,827
20130,773,826
20135,788,821
20140,769,822
20145,759,827
20150,757,826
20155,756,825
20160,758,822
20165,748,816
20170,754,814
20175,750,814
20180,743,814
20185,755,807
20190,750,807
20195,744,805
20200,750,804
20205,759,796
20210,771,802
20215,769,795
20220,782,793
20225,784,787
20230,788,782
20235,798,783
20240,795,775
20245,812,775
20250,819,771
20255,824,763
20260,839,764
20265,849,761
20270,869,762
20275,865,750
20280,882,750
20285,895,748
20290,910,747
20295,921,741
20300,932,739
20305,940,736
20310,958,734
20315,974,728
20320,985,734
20325,1005,722
20330,1008,720
20335,1022,714
20340,1041,717
20345,1054,716
20350,1063,714
20355,1063,713
20360,1081,709
20365,1091,708
20370,1106,699
20375,1113,710
20380,1121,701
20385,1128,709
20390,1138,711
20395,1145,708
20400,1149,708
20405,1156,711
20410,1160,711
20415,1171,711
20420,1179,712
20425,1170,717
20430,1178,718
20435,1174,718
20440,1188,728
20445,1183,728
20450,1189,733
20455,1192,738
20460,1188,735
20465,1188,741
20470,1187,748
20475,1181,750
20480,1194,763
20485,1180,761
20490,1179,760
20495,1172,764
20500,1185,775
20505,1176,773
20510,1175,786
20515,1166,789
20520,1161,790
20525,1160,794
20530,1164,801
20535,1149,805
20540,1152,812
20545,1148,814
20550,1141,824
20555,1138,821
20560,1146,823
20565,1139,833
20570,1127,837
20575,1132,841
20580,1134,848
20585,1115,843
20590,1114,851
20595,1116,847
20600,1117,848
20605,1105,855
20610,1111,854
20615,1099,862
20620,1100,867
20625,1095,856
20630,1107,865
20635,1105,860
20640,1102,874
20645,1092,867
20650,1086,868
20655,1082,865
20660,1083,873
20665,1076,863
20670,1076,867
20675,1075,869
20680,1074,873
20685,1073,868
20690,1070,870
20695,1066,862
20700,1060,863
20705,1053,867
20710,1049,860
20715,1046,863
20720,1042,863
20725,1038,857
20730,1036,861
20735,1026,857
20740,1014,854
20745,1014,859
20750,1003,849
20755,1001,854
20760,987,848
20765,985,849
20770,972,852
20775,961,849
20780,960,844
20785,951,844
20790,940,840
20795,938,838
20800,923,843
20805,913,843
20810,906,838
20815,890,844
20820,882,833
20825,871,837
20830,868,834
20835,857,839
20840,843,829
20845,836,832
20850,839,835
20855,836,831
20860,814,834
20865,806,831
20870,810,830
20875,789,829
20880,787,826
20885,779,823
20890,770,825
20895,762,824
20900,762,815
20905,767,826
20910,758,820
20915,750,817
20920,755,816
20925,745,806
20930,747,813
20935,750,808
20940,752,810
20945,745,809
20950,746,802
20955,753,804
20960,759,802
20965,764,791
20970,769,800
20975,768,789
20980,781,785
20985,790,783
20990,800,782
20995,799,777
21000,813,772
21005,821,775
21010,831,765
21015,841,766
21020,860,761
21025,869,757
21030,879,754
21035,896,746
21040,904,747
21045,913,742
21050,934,741
21055,937,739
21060,960,738
21065,968,730
21070,974,731
21075,986,728
21080,1004,727
21085,1013,718
21090,1024,713
21095,1038,713
21100,1068,712
21105,1065,712
21110,1076,713
21115,1095,713
21120,1096,707
21125,1110,702
21130,1113,706
21135,1119,707
21140,1123,710
21145,1134,710
21150,1149,711
21155,1147,707
21160,1162,707
21165,1165,720
21170,1175,712
21175,1184,711
21180,1178,721
21185,1185,718
21190,1186,721
21195,1190,723
21200,1189,728
21205,1187,732
21210,1188,736
21215,1191,736
21220,1184,743
21225,1186,745
21230,1186,752
21235,1183,755
21240,1183,764
21245,1172,761
21250,1172,769
21255,1179,775
21260,1175,779
21265,1165,782
21270,1156,785
21275,1155,792
21280,1167,794
21285,1156,804
21290,1145,803
21295,1153,807
21300,1150,813
21305,1138,823
21310,1138,831
21315,1138,824
21320,1131,833
21325,1136,839
21330,1128,837
21335,1120,838
21340,1129,849
21345,1117,852
21350,1114,851
21355,1114,852
21360,1103,852
21365,1113,854
21370,1104,857
21375,1099,862
21380,1102,866
21385,1099,862
21390,1088,863
21395,1098,868
21400,1075,871
21405,1084,866
21410,1077,870
21415,1078,863
21420,1077,869
21425,1075,868
21430,1074,872
21435,1078,871
21440,1076,866
21445,1064,868
21450,1064,866
21455,1060,867
21460,1057,858
21465,1055,866
21470,1053,859
21475,1046,862
21480,1035,856
21485,1032,861
21490,1024,854
21495,1019,857
21500,1009,856
21505,1007,854
21510,1003,851
21515,992,853
21520,978,850
21525,981,848
21530,966,846
21535,959,838
21540,944,848
21545,942,842
21550,932,835
21555,927,842
21560,923,841
21565,906,842
21570,891,840
21575,885,836
21580,867,834
21585,862,834
21590,856,835
21595,842,834
21600,837,835
21605,827,827
21610,821,831
21615,807,834
21620,802,827
21625,797,826
21630,793,828
21635,776,827
21640,775,822
21645,767,828
21650,765,826
21655,769,826
21660,761,822
21665,744,821
21670,750,815
21675,748,818
21680,749,807
21685,749,810
21690,742,810
21695,746,805
21700,754,809
21705,758,807
21710,757,800
21715,755,798
21720,757,794
21725,775,799
21730,775,791
21735,780,787
21740,795,781
21745,793,781
21750,816,775
21755,807,776
21760,831,770
21765,833,770
21770,847,759
21775,868,760
21780,864,752
21785,882,753
21790,901,749
21795,907,748
21800,918,749
21805,930,735
21810,951,731
21815,948,729
21820,971,738
21825,980,726
21830,997,721
21835,1008,722
21840,1020,715
21845,1033,716
21850,1053,717
21855,1058,716
21860,1070,714
21865,1080,706
21870,1081,705
21875,1109,704
21880,1110,707
21885,1113,707
21890,1122,716
21895,1143,703
21900,1149,706
21905,1152,712
21910,1156,715
21915,1163,710
21920,1168,720
21925,1170,711
21930,1173,717
21935,1178,716
21940,1183,725
21945,1177,722
21950,1194,726
21955,1174,727
21960,1176,735
21965,1181,735
21970,1185,741
21975,1191,737
21980,1186,744
21985,1186,753
21990,1182,755
21995,1179,760
22000,1177,770
22005,1173,768
22010,1176,772
22015,1172,780
22020,1167,785
22025,1175,787
22030,1160,793
22035,1161,801
22040,1144,801
22045,1153,809
22050,1144,809
22055,1146,821
22060,1138,824
22065,1132,825
22070,1134,836
22075,1130,836
22080,1129,839
22085,1125,839
22090,1117,850
22095,1117,847
22100,1121,850
22105,1110,856
22110,1101,856
22115,1105,860
22120,1096,858
22125,1093,856
22130,1099,864
22135,1094,866
22140,1095,862
22145,1084,870
22150,1086,862
22155,1097,869
22160,1086,869
22165,1085,864
22170,1084,867
22175,1083,872
22180,1070,865
22185,1071,873
22190,1066,865
22195,1062,866
22200,1056,868
22205,1057,865
22210,1053,863
22215,1058,862
22220,1038,863
22225,1045,857
22230,1029,855
22235,1039,867
22240,1030,855
22245,1023,856
22250,1018,854
22255,1006,854
22260,1000,852
22265,997,851
22270,999,850
22275,983,851
22280,977,845
22285,971,848
22290,956,848
22295,949,846
22300,933,843
22305,926,842
22310,916,846
22315,902,844
22320,894,840
22325,883,839
22330,882,834
22335,876,837
22340,870,837
22345,855,831
22350,840,832
22355,837,834
22360,827,834
22365,813,835
22370,807,827
22375,807,827
22380,800,825
22385,788,827
22390,779,831
22395,783,825
22400,766,827
22405,768,823
22410,763,821
22415,753,817
22420,766,822
22425,751,817
22430,747,817
22435,754,814
22440,751,811
22445,750,808
22450,744,808
22455,746,803
22460,761,802
22465,761,800
22470,750,799
22475,769,789
22480,768,789
22485,773,783
22490,787,789
22495,786,786
22500,792,781
22505,806,779
22510,820,773
22515,825,764
22520,844,770
22525,861,761
22530,862,760
22535,878,755
22540,885,749
22545,906,753
22550,909,749
22555,924,745
22560,943,743
22565,944,739
22570,964,730
22575,976,731
22580,988,723
22585,996,724
22590,1014,720
22595,1023,720
22600,1035,718
22605,1047,712
22610,1063,715
22615,1074,710
22620,1076,707
22625,1099,703
22630,1105,709
22635,1112,708
22640,1124,710
22645,1134,711
22650,1134,705
22655,1142,706
22660,1149,709
22665,1164,712
22670,1166,710
22675,1166,712
22680,1172,716
22685,1174,720
22690,1172,718
22695,1179,720
22700,1186,725
22705,1186,729
22710,1189,729
22715,1191,732
22720,1191,740
22725,1191,742
22730,1190,743
22735,1187,753
22740,1185,753
22745,1183,760
22750,1177,764
22755,1176,764
22760,1171,775
22765,1179,779
22770,1172,779
22775,1165,783
22780,1156,791
22785,1160,796
22790,1153,804
22795,1157,805
22800,1145,814
22805,1147,816
22810,1142,819
22815,1133,822
22820,1135,826
22825,1123,831
22830,1118,833
22835,1120,836
22840,1121,845
22845,1115,844
22850,1120,846
22855,1118,850
22860,1124,858
22865,1118,858
22870,1105,857
22875,1101,860
22880,1098,857
22885,1099,861
22890,1090,861
22895,1090,867
22900,1091,863
22905,1079,864
22910,1087,864
22915,1090,870
22920,1086,865
22925,1074,870
22930,1079,869
22935,1078,870
22940,1068,870
22945,1066,863
22950,1066,866
22955,1062,863
22960,1058,865
22965,1051,868
22970,1058,865
22975,1047,861
22980,1038,856
22985,1038,858
22990,1033,854
22995,1025,861
23000,1027,851
23005,1011,860
23010,1006,855
23015,999,857
23020,988,851
23025,983,844
23030,986,849
23035,966,847
23040,962,846
23045,949,841
23050,937,847
23055,928,846
23060,921,841
23065,915,839
23070,916,842
23075,890,833
23080,888,844
23085,879,837
23090,859,838
23095,855,832
23100,852,837
23105,846,836
23110,833,827
23115,811,838
23120,823,835
23125,810,832
23130,807,832
23135,791,827
23140,787,828
23145,768,824
23150,775,826
23155,771,826
23160,765,822
23165,756,820
23170,754,816
23175,756,817
23180,742,814
23185,755,817
23190,747,807
23195,737,813
23200,743,808
23205,752,808
23210,738,798
23215,745,797
23220,758,795
23225,770,799
23230,763,794
23235,760,791
23240,775,785
23245,785,781
23250,795,785
23255,805,781
23260,812,771
23265,819,766
23270,819,769
23275,836,760
23280,853,760
23285,863,755
23290,875,750
23295,896,753
23300,899,748
23305,914,743
23310,936,742
23315,940,740
23320,954,738
23325,970,730
23330,979,727
23335,997,725
23340,999,725
23345,1010,717
23350,1030,721
23355,1045,707
23360,1045,713
23365,1057,713
23370,1069,710
23375,1090,707
23380,1097,708
23385,1103,705
23390,1116,711
23395,1125,712
23400,1122,712
23405,1142,711
23410,1153,712
23415,1152,709
23420,1162,711
23425,1157,709
23430,1162,706
23435,1166,720
23440,1181,712
23445,1185,715
23450,1180,720
23455,1187,730
23460,1184,725
23465,1182,725
23470,1189,738
23475,1186,738
23480,1192,739
23485,1186,747
23490,1180,752
23495,1179,754
23500,1172,756
23505,1173,764
23510,1175,772
23515,1172,773
23520,1173,778
23525,1168,783
23530,1166,787
23535,1158,793
23540,1159,798
23545,1156,803
23550,1148,811
23555,1153,810
23560,1150,813
23565,1148,822
23570,1143,825
23575,1123,827
23580,1132,833
23585,1123,839
23590,1122,840
23595,1121,844
23600,1121,845
23605,1119,848
23610,1115,855
23615,1106,848
23620,1104,857
23625,1104,854
23630,1100,861
23635,1101,864
23640,1097,866
23645,1095,870
23650,1097,867
23655,1085,864
23660,1095,869
23665,1085,869
23670,1081,868
23675,1076,867
23680,1078,863
23685,1075,862
23690,1072,863
23695,1059,869
23700,1060,866
23705,1063,868
23710,1066,868
23715,1057,873
23720,1046,864
23725,1051,862
23730,1049,861
23735,1028,860
23740,1044,854
23745,1023,862
23750,1030,859
23755,1021,857
23760,1009,855
23765,1006,854
23770,993,849
23775,981,838
23780,979,853
23785,978,848
23790,957,845
23795,960,845
23800,950,843
23805,939,849
23810,933,844
23815,923,841
23820,916,838
23825,900,838
23830,895,835
23835,886,834
23840,880,834
23845,868,832
23850,856,839
23855,857,836
23860,837,833
23865,830,835
23870,810,833
23875,811,830
23880,808,827
23885,804,828
23890,789,828
23895,778,829
23900,782,826
23905,762,826
23910,774,821
23915,767,821
23920,762,823
23925,760,823
23930,753,812
23935,751,816
23940,748,815
23945,752,817
23950,746,810
23955,753,807
23960,754,807
23965,758,807
23970,752,795
23975,763,803
23980,752,796
23985,773,790
23990,772,787
23995,785,785
24000,780,786
24005,804,781
24010,807,775
24015,813,773
24020,835,772
24025,840,761
24030,844,760
24035,872,765
24040,863,751
24045,877,757
24050,887,752
24055,907,748
24060,913,744
24065,928,738
24070,954,738
24075,951,735
24080,966,730
24085,980,725
24090,993,719
24095,1009,721
24100,1021,727
24105,1028,716
24110,1046,714
24115,1059,714
24120,1070,707
24125,1073,708
24130,1087,713
24135,1103,709
24140,1101,703
24145,1112,707
24150,1125,707
24155,1137,711
24160,1138,706
24165,1154,706
24170,1160,709
24175,1159,709
24180,1165,708
24185,1180,713
24190,1179,709
24195,1187,720
24200,1182,716
24205,1184,726
24210,1184,727
24215,1181,727
24220,1189,731
24225,1187,736
24230,1192,735
24235,1191,745
24240,1183,749
24245,1180,755
24250,1181,757
24255,1179,763
24260,1184,765
24265,1180,765
24270,1169,778
24275,1178,778
24280,1168,787
24285,1154,787
24290,1161,793
24295,1160,796
24300,1146,803
24305,1147,814
24310,1148,815
24315,1143,816
24320,1144,825
24325,1147,828
24330,1129,826
24335,1133,832
24340,1132,832
24345,1124,839
24350,1122,846
24355,1116,842
24360,1114,850
24365,1115,854
24370,1110,859
24375,1112,853
24380,1106,859
24385,1103,863
24390,1100,866
24395,1095,867
24400,1097,865
24405,1093,869
24410,1103,871
24415,1088,867
24420,1087,867
24425,1082,868
24430,1073,869
24435,1083,869
24440,1084,867
24445,1074,870
24450,1066,870
24455,1075,866
24460,1060,868
24465,1049,862
24470,1058,866
24475,1052,864
24480,1052,860
24485,1050,867
24490,1028,864
24495,1034,856
24500,1029,855
24505,1026,855
24510,1014,858
24515,1012,854
24520,1001,850
24525,1003,853
24530,988,845
24535,982,854
24540,972,848
24545,969,844
24550,954,841
24555,943,846
24560,936,842
24565,931,844
24570,922,838
24575,914,839
24580,902,841
24585,888,839
24590,889,842
24595,876,832
24600,860,840
24605,856,832
24610,845,832
24615,835,831
24620,830,829
24625,815,834
24630,816,830
24635,807,832
24640,790,831
24645,789,828
24650,789,826
24655,773,820
24660,765,825
24665,765,827
24670,758,821
24675,747,819
24680,751,821
24685,757,821
24690,745,817
24695,753,819
24700,745,808
24705,750,810
24710,755,801
24715,749,803
24720,757,803
24725,766,806
24730,768,798
24735,771,796
24740,770,790
24745,784,790
24750,779,782
24755,795,784
24760,800,779
24765,809,774
24770,820,772
24775,833,771
24780,846,768
24785,850,764
24790,859,759
24795,874,753
24800,876,751
24805,894,747
24810,907,742
24815,922,746
24820,937,737
24825,951,733
24830,955,729
24835,979,734
24840,986,729
24845,995,726
24850,1002,723
24855,1027,718
24860,1040,715
24865,1044,716
24870,1057,715
24875,1074,707
24880,1087,710
24885,1090,711
24890,1104,705
24895,1108,705
24900,1121,697
24905,1122,708
24910,1137,708
24915,1140,710
24920,1153,704
24925,1156,711
24930,1162,711
24935,1170,712
24940,1175,712
24945,1176,711
24950,1176,716
24955,1175,722
24960,1174,726
24965,1187,724
24970,1187,730
24975,1188,732
24980,1184,734
24985,1189,743
24990,1190,744
24995,1182,749
25000,1177,751
25005,1186,755
25010,1169,761
25015,1176,769
25020,1178,771
25025,1168,775
25030,1177,780
25035,1167,792
25040,1165,789
25045,1158,800
25050,1159,804
25055,1150,801
25060,1151,810
25065,1142,814
25070,1145,817
25075,1129,819
25080,1133,828
25085,1133,831
25090,1125,835
25095,1122,838
25100,1117,842
25105,1118,842
25110,1116,846
25115,1108,850
25120,1104,851
25125,1111,855
25130,1102,853
25135,1103,862
25140,1103,854
25145,1106,865
25150,1097,867
25155,1096,872
25160,1102,871
25165,1095,872
25170,1095,870
25175,1089,869
25180,1082,868
25185,1078,870
25190,1077,870
25195,1074,868
25200,1074,865
25205,1065,872
25210,1064,868
25215,1069,867
25220,1054,871
25225,1047,863
25230,1048,867
25235,1044,864
25240,1038,856
25245,1040,868
25250,1024,859
25255,1023,856
25260,1021,860
25265,1013,854
25270,1007,856
25275,1005,849
25280,993,855
25285,989,846
25290,978,844
25295,965,847
25300,962,847
25305,956,846
25310,947,840
25315,933,845
25320,914,840
25325,919,843
25330,906,839
25335,902,842
25340,888,841
25345,870,839
25350,861,836
25355,856,835
25360,843,832
25365,839,830
25370,833,833
25375,829,831
25380,813,836
25385,808,824
25390,798,825
25395,799,833
25400,782,821
25405,771,826
25410,772,822
25415,776,828
25420,764,819
25425,758,819
25430,753,820
25435,755,819
25440,752,808
25445,749,818
25450,749,811
25455,752,810
25460,752,810
25465,750,804
25470,757,804
25475,754,802
25480,760,803
25485,762,795
25490,773,790
25495,772,792
25500,781,792
25505,790,783
25510,797,782
25515,801,777
25520,815,773
25525,810,776
25530,831,765
25535,850,762
25540,848,762
25545,872,759
25550,875,754
25555,887,749
25560,901,746
25565,918,744
25570,929,741
25575,941,737
25580,952,733
25585,962,732
25590,985,729
25595,985,725
25600,1007,722
25605,1010,722
25610,1025,717
25615,1040,719
25620,1060,708
25625,1062,708
25630,1080,711
25635,1070,712
25640,1102,713
25645,1111,712
25650,1114,707
25655,1127,707
25660,1125,702
25665,1140,708
25670,1142,711
25675,1149,704
25680,1165,711
25685,1161,712
25690,1157,709
25695,1166,715
25700,1181,718
25705,1187,721
25710,1184,725
25715,1180,726
25720,1182,729
25725,1193,727
25730,1190,734
25735,1188,739
25740,1186,740
25745,1185,746
25750,1196,753
25755,1188,756
25760,1189,761
25765,1181,766
25770,1186,768
25775,1180,774
25780,1171,780
25785,1171,786
25790,1172,791
25795,1168,789
25800,1153,801
25805,1155,805
25810,1158,809
25815,1152,816
25820,1148,814
25825,1148,813
25830,1131,823
25835,1137,831
25840,1122,829
25845,1129,837
25850,1125,840
25855,1131,844
25860,1116,846
25865,1114,852
25870,1119,850
25875,1110,856
25880,1117,855
25885,1111,859
25890,1105,867
25895,1106,860
25900,1095,861
25905,1095,864
25910,1093,867
25915,1094,865
25920,1091,865
25925,1093,864
25930,1091,871
25935,1090,869
25940,1079,869
25945,1076,866
25950,1076,865
25955,1071,872
25960,1066,872
25965,1066,863
25970,1065,872
25975,1063,867
25980,1051,860
25985,1049,858
25990,1045,864
25995,1039,863
26000,1041,863
26005,1028,859
26010,1030,851
26015,1025,858
26020,1010,855
26025,1003,855
26030,1001,854
26035,981,849
26040,979,848
26045,980,849
26050,969,849
26055,963,847
26060,958,844
26065,946,844
26070,929,845
26075,930,843
26080,915,842
26085,892,834
26090,889,836
26095,889,838
26100,878,836
26105,861,836
26110,854,838
26115,847,833
26120,832,828
26125,824,831
26130,817,830
26135,808,832
26140,804,833
26145,802,829
26150,783,828
26155,784,827
26160,779,821
26165,779,825
26170,763,825
26175,760,821
26180,764,822
26185,759,819
26190,757,816
26195,750,816
26200,751,812
26205,744,814
26210,755,811
26215,753,806
26220,744,809
26225,752,806
26230,755,798
26235,753,800
26240,763,793
26245,778,796
26250,775,786
26255,794,786
26260,793,780
26265,811,785
26270,806,778
26275,813,771
26280,833,777
26285,837,769
26290,845,767
26295,860,765
26300,870,755
26305,880,747
26310,882,748
26315,908,738
26320,919,745
26325,931,739
26330,945,734
26335,958,735
26340,967,727
26345,988,725
26350,998,728
26355,1011,716
26360,1019,719
26365,1031,716
26370,1047,712
26375,1052,711
26380,1066,711
26385,1081,712
26390,1101,709
26395,1093,707
26400,1099,710
26405,1116,712
26410,1126,705
26415,1132,707
26420,1148,701
26425,1156,705
26430,1160,710
26435,1155,713
26440,1165,714
26445,1173,709
26450,1169,716
26455,1177,724
26460,1182,723
26465,1187,724
26470,1180,723
26475,1181,727
26480,1183,729
26485,1188,735
26490,1188,733
26495,1181,748
26500,1184,746
26505,1183,758
26510,1191,755
26515,1173,758
26520,1179,764
26525,1176,769
26530,1174,773
26535,1176,780
26540,1165,785
26545,1164,787
26550,1157,796
26555,1166,799
26560,1151,807
26565,1151,806
26570,1143,815
26575,1143,819
26580,1140,821
26585,1133,825
26590,1133,831
26595,1130,832
26600,1129,836
26605,1136,837
26610,1116,845
26615,1124,841
26620,1107,851
26625,1118,854
26630,1113,848
26635,1110,858
26640,1107,859
26645,1104,863
26650,1101,864
26655,1094,867
26660,1099,866
26665,1089,867
26670,1086,864
26675,1085,868
26680,1095,868
26685,1080,869
26690,1076,868
26695,1077,866
26700,1072,866
26705,1073,873
26710,1071,870
26715,1062,864
26720,1056,870
26725,1060,864
26730,1058,860
26735,1058,862
26740,1048,865
26745,1045,863
26750,1034,866
26755,1036,858
26760,1032,860
26765,1027,853
26770,1018,849
26775,1014,853
26780,1002,848
26785,996,846
26790,992,846
26795,986,849
26800,974,845
26805,967,847
26810,958,845
26815,945,845
26820,935,845
26825,927,841
26830,921,844
26835,914,839
26840,897,841
26845,897,835
26850,881,839
26855,865,838
26860,865,831
26865,856,838
26870,854,837
26875,832,831
26880,828,833
26885,813,837
26890,807,835
26895,795,830
26900,803,832
26905,784,825
26910,783,828
26915,774,830
26920,764,819
26925,760,821
26930,762,822
26935,748,819
26940,753,819
26945,749,816
26950,752,813
26955,747,811
26960,750,817
26965,742,812
26970,741,804
26975,751,808
26980,751,806
26985,752,800
26990,756,800
26995,768,795
27000,767,787
27005,778,795
27010,780,787
27015,799,790
27020,805,777
27025,806,781
27030,818,772
27035,828,770
27040,849,768
27045,853,764
27050,865,764
27055,880,757
27060,888,753
27065,902,751
27070,906,746
27075,914,742
27080,935,737
27085,947,737
27090,962,737
27095,971,727
27100,985,722
27105,995,721
27110,1012,723
27115,1022,719
27120,1037,717
27125,1047,713
27130,1058,710
27135,1065,707
27140,1076,713
27145,1089,708
27150,1098,709
27155,1108,710
27160,1118,703
27165,1130,707
27170,1138,708
27175,1147,707
27180,1143,707
27185,1156,716
27190,1169,715
27195,1164,707
27200,1171,707
27205,1172,719
27210,1179,720
27215,1176,721
27220,1184,726
27225,1177,726
27230,1195,730
27235,1178,736
27240,1189,736
27245,1189,746
27250,1182,748
27255,1179,755
27260,1186,749
27265,1185,758
27270,1182,763
27275,1175,773
27280,1177,774
27285,1175,774
27290,1172,783
27295,1172,787
27300,1158,796
27305,1156,796
27310,1155,806
27315,1149,807
27320,1145,810
27325,1153,813
27330,1144,816
27335,1139,826
27340,1132,822
27345,1130,834
27350,1137,836
27355,1131,839
27360,1125,838
27365,1126,848
27370,1113,850
27375,1116,851
27380,1106,851
27385,1115,855
27390,1105,861
27395,1108,857
27400,1111,862
27405,1097,864
27410,1090,862
27415,1102,864
27420,1095,867
27425,1101,864
27430,1091,872
27435,1088,875
27440,1087,867
27445,1067,869
27450,1080,870
27455,1077,875
27460,1073,865
27465,1069,863
27470,1062,866
27475,1061,863
27480,1054,867
27485,1061,865
27490,1046,860
27495,1043,862
27500,1044,867
27505,1034,858
27510,1019,854
27515,1021,859
27520,1024,861
27525,1017,857
27530,1004,851
27535,1000,851
27540,999,852
27545,981,847
27550,985,848
27555,969,844
27560,971,842
27565,944,847
27570,949,845
27575,938,843
27580,926,840
27585,918,843
27590,902,836
27595,895,840
27600,889,832
27605,875,838
27610,865,839
27615,861,834
27620,852,836
27625,832,827
27630,828,832
27635,833,831
27640,810,830
27645,809,833
27650,805,832
27655,788,824
27660,789,826
27665,779,826
27670,768,825
27675,774,823
27680,752,827
27685,752,823
27690,753,819
27695,759,815
27700,749,819
27705,748,813
27710,749,812
27715,749,810
27720,741,811
27725,759,806
27730,746,805
27735,754,800
27740,760,800
27745,765,799
27750,767,792
27755,764,790
27760,776,789
27765,781,784
27770,792,773
27775,809,780
27780,807,776
27785,823,772
27790,826,770
27795,841,759
27800,856,755
27805,854,756
27810,874,758
27815,884,753
27820,901,750
27825,917,744
27830,925,742
27835,944,734
27840,955,732
27845,967,734
27850,982,730
27855,986,724
27860,1002,722
27865,1016,718
27870,1019,717
27875,1039,712
27880,1043,711
27885,1069,719
27890,1080,712
27895,1083,712
27900,1097,707
27905,1113,709
27910,1110,704
27915,1126,708
27920,1130,709
27925,1140,709
27930,1153,709
27935,1148,711
27940,1156,712
27945,1159,714
27950,1171,713
27955,1169,713
27960,1173,723
27965,1178,719
27970,1177,722
27975,1180,729
27980,1198,726
27985,1191,728
27990,1191,731
27995,1180,735
28000,1190,739
28005,1186,751
28010,1181,747
28015,1187,748
28020,1184,756
28025,1177,763
28030,1172,772
28035,1175,778
28040,1168,778
28045,1167,780
28050,1165,794
28055,1171,790
28060,1158,794
28065,1153,805
28070,1151,803
28075,1145,808
28080,1155,812
28085,1150,810
28090,1138,822
28095,1142,830
28100,1126,834
28105,1123,834
28110,1129,839
28115,1117,844
28120,1117,845
28125,1114,851
28130,1117,853
28135,1114,859
28140,1113,856
28145,1112,859
28150,1105,862
28155,1105,863
28160,1099,867
28165,1097,864
28170,1095,872
28175,1096,865
28180,1092,865
28185,1082,865
28190,1074,862
28195,1080,871
28200,1081,874
28205,1078,867
28210,1080,870
28215,1073,866
28220,1074,868
28225,1065,862
28230,1063,865
28235,1063,860
28240,1051,864
28245,1057,864
28250,1048,861
28255,1038,863
28260,1032,866
28265,1027,858
28270,1025,851
28275,1019,854
28280,1006,848
28285,1002,855
28290,999,854
28295,990,850
28300,987,853
28305,964,850
28310,979,850
28315,953,849
28320,953,841
28325,937,841
28330,930,844
28335,920,836
28340,913,842
28345,898,841
28350,897,840
28355,878,841
28360,874,836
28365,866,833
28370,855,836
28375,847,833
28380,838,830
28385,829,832
28390,817,828
28395,807,830
28400,804,832
28405,799,837
28410,786,826
28415,783,825
28420,777,828
28425,779,827
28430,761,824
28435,763,824
28440,753,827
28445,748,816
28450,745,826
28455,751,813
28460,755,815
28465,745,814
28470,745,810
28475,749,807
28480,740,804
28485,754,801
28490,758,805
28495,756,798
28500,765,800
28505,769,795
28510,768,786
28515,780,783
28520,787,789
28525,807,782
28530,807,782
28535,824,771
28540,823,772
28545,835,766
28550,848,764
28555,852,760
28560,860,759
28565,885,759
28570,892,752
28575,916,748
28580,911,735
28585,937,737
28590,948,738
28595,954,729
28600,971,729
28605,983,727
28610,984,717
28615,1017,721
28620,1020,721
28625,1038,716
28630,1039,719
28635,1056,714
28640,1066,715
28645,1079,715
28650,1090,709
28655,1095,713
28660,1105,710
28665,1121,705
28670,1121,706
28675,1134,705
28680,1140,707
28685,1145,712
28690,1157,710
28695,1158,710
28700,1177,708
28705,1169,709
28710,1168,714
28715,1171,717
28720,1187,722
28725,1179,725
28730,1188,722
28735,1194,726
28740,1190,730
28745,1189,734
28750,1183,740
28755,1191,747
28760,1186,748
28765,1181,752
28770,1184,758
28775,1188,756
28780,1185,762
28785,1180,771
28790,1166,772
28795,1176,777
28800,1167,789
28805,1163,786
28810,1162,789
28815,1160,796
28820,1161,804
28825,1151,811
28830,1146,812
28835,1147,819
28840,1141,820
28845,1139,818
28850,1135,825
28855,1134,838
28860,1123,835
28865,1129,837
28870,1122,845
28875,1114,851
28880,1114,851
28885,1111,859
28890,1111,859
28895,1105,853
28900,1102,858
28905,1096,862
28910,1096,858
28915,1098,861
28920,1091,866
28925,1091,864
28930,1085,867
28935,1090,868
28940,1088,868
28945,1084,867
28950,1086,866
28955,1084,869
28960,1083,866
28965,1078,866
28970,1068,863
28975,1075,873
28980,1062,868
28985,1071,866
28990,1053,870
28995,1054,864
29000,1052,862
29005,1048,858
29010,1031,859
29015,1022,866
29020,1036,857
29025,1022,855
29030,1025,853
29035,1014,852
29040,997,854
29045,989,855
29050,988,852
29055,990,842
29060,966,849
29065,963,850
29070,959,837
29075,948,843
29080,927,844
29085,924,841
29090,919,839
29095,920,838
29100,904,835
29105,892,835
29110,889,840
29115,874,836
29120,866,838
29125,854,838
29130,843,832
29135,829,832
29140,817,837
29145,818,827
29150,809,829
29155,797,833
29160,797,829
29165,790,831
29170,780,823
29175,774,823
29180,778,823
29185,759,830
29190,757,817
29195,754,822
29200,746,817
29205,748,814
29210,757,813
29215,749,819
29220,744,815
29225,754,821
29230,750,808
29235,756,806
29240,759,804
29245,758,797
29250,761,799
29255,767,796
29260,774,791
29265,780,791
29270,788,788
29275,797,782
29280,794,780
29285,812,771
29290,812,773
29295,829,771
29300,840,765
29305,851,762
29310,864,754
29315,875,758
29320,876,750
29325,892,749
29330,909,749
29335,931,744
29340,934,741
29345,943,735
29350,947,731
29355,974,731
29360,990,724
29365,1000,720
29370,1007,720
29375,1027,719
29380,1031,714
29385,1044,711
29390,1057,715
29395,1067,710
29400,1089,708
29405,1087,709
29410,1096,708
29415,1112,711
29420,1128,710
29425,1132,708
29430,1139,709
29435,1140,710
29440,1154,707
29445,1159,706
29450,1162,706
29455,1172,712
29460,1171,715
29465,1177,716
29470,1180,719
29475,1182,721
29480,1182,724
29485,1182,728
29490,1185,739
29495,1201,735
29500,1184,739
29505,1175,743
29510,1184,745
29515,1188,749
29520,1189,758
29525,1188,762
29530,1180,763
29535,1172,769
29540,1169,769
29545,1168,775
29550,1174,783
29555,1159,788
29560,1163,795
29565,1165,799
29570,1159,801
29575,1157,807
29580,1151,812
29585,1154,809
29590,1152,820
29595,1135,826
29600,1134,831
29605,1131,827
29610,1137,831
29615,1130,836
29620,1126,836
29625,1128,842
29630,1124,852
29635,1109,846
29640,1110,855
29645,1105,852
29650,1115,853
29655,1104,858
29660,1102,861
29665,1099,860
29670,1098,865
29675,1100,864
29680,1088,869
29685,1100,872
29690,1092,865
29695,1091,868
29700,1080,872
29705,1082,870
29710,1064,868
29715,1077,872
29720,1068,868
29725,1069,869
29730,1068,869
29735,1069,861
29740,1059,865
29745,1051,867
29750,1055,864
29755,1042,868
29760,1045,861
29765,1041,859
29770,1029,858
29775,1025,856
29780,1018,857
29785,1015,856
29790,1007,854
29795,995,855
29800,993,849
29805,988,848
29810,971,848
29815,961,846
29820,970,843
29825,954,849
29830,939,841
29835,939,845
29840,923,844
29845,915,845
29850,902,845
29855,901,841
29860,888,831
29865,885,834
29870,867,837
29875,858,834
29880,846,831
29885,834,836
29890,831,835
29895,828,826
29900,829,837
29905,811,827
29910,798,823
29915,797,830
29920,790,830
29925,777,830
29930,764,822
29935,760,828
29940,765,824
29945,759,825
29950,750,819
29955,758,818
29960,756,815
29965,747,816
29970,742,812
29975,753,810
29980,743,811
29985,749,809
29990,746,804
29995,765,808
30000,752,799
30005,756,795
30010,769,794
30015,770,789
30020,778,789
30025,788,786
30030,797,782
30035,806,778
30040,813,771
30045,807,774
30050,834,765
30055,835,765
30060,859,762
30065,858,759
30070,883,753
30075,889,749
30080,901,749
30085,918,745
30090,932,736
30095,933,738
30100,951,735
30105,957,731
30110,982,724
30115,992,725
30120,994,728
30125,1017,721
30130,1037,715
30135,1036,715
30140,1054,711
30145,1064,708
30150,1069,708
30155,1088,708
30160,1092,709
30165,1103,706
30170,1119,704
30175,1121,711
30180,1136,707
30185,1143,708
30190,1147,710
30195,1141,707
30200,1159,712
30205,1156,713
30210,1175,714
30215,1173,717
30220,1182,717
30225,1174,719
30230,1185,718
30235,1179,721
30240,1180,726
30245,1195,732
30250,1188,735
30255,1187,737
30260,1181,742
30265,1196,745
30270,1181,754
30275,1188,758
30280,1186,759
30285,1179,764
30290,1181,771
30295,1171,772
30300,1172,780
30305,1167,783
30310,1164,786
30315,1173,796
30320,1157,798
30325,1157,800
30330,1143,802
30335,1149,809
30340,1146,817
30345,1146,822
30350,1137,822
30355,1139,831
30360,1129,832
30365,1140,837
30370,1124,836
30375,1121,840
30380,1119,849
30385,1115,853
30390,1113,851
30395,1112,853
30400,1112,859
30405,1096,858
30410,1100,860
30415,1105,864
30420,1102,861
30425,1095,868
30430,1089,868
30435,1087,866
30440,1088,863
30445,1090,864
30450,1085,867
30455,1080,864
30460,1065,870
30465,1075,870
30470,1073,864
30475,1083,868
30480,1077,865
30485,1066,866
30490,1069,873
30495,1053,869
30500,1056,868
30505,1050,863
30510,1038,858
30515,1036,856
30520,1036,858
30525,1031,861
30530,1022,858
30535,1021,856
30540,1003,856
30545,1014,851
30550,995,854
30555,986,849
30560,978,851
30565,982,847
30570,969,847
30575,966,847
30580,947,846
30585,941,846
30590,927,838
30595,924,840
30600,920,838
30605,902,840
30610,888,839
30615,887,839
30620,874,836
30625,865,831
30630,860,837
30635,858,829
30640,834,837
30645,831,829
30650,820,834
30655,810,829
30660,807,832
30665,793,825
30670,791,827
30675,787,825
30680,777,829
30685,774,820
30690,759,823
30695,758,820
30700,751,821
30705,750,827
30710,755,820
30715,747,811
30720,739,816
30725,742,813
30730,745,815
30735,751,812
30740,754,805
30745,756,803
30750,750,799
30755,760,791
30760,762,799
30765,769,791
30770,775,793
30775,780,784
30780,786,785
30785,797,785
30790,800,773
30795,819,772
30800,821,771
30805,840,766
30810,843,762
30815,845,756
30820,870,757
30825,868,750
30830,897,753
30835,907,741
30840,910,744
30845,931,739
30850,941,740
30855,949,734
30860,974,729
30865,984,720
30870,992,726
30875,1006,724
30880,1015,721
30885,1035,716
30890,1036,719
30895,1045,712
30900,1076,709
30905,1080,710
30910,1081,710
30915,1095,710
30920,1105,706
30925,1118,706
30930,1117,709
30935,1131,697
30940,1146,711
30945,1136,707
30950,1157,705
30955,1160,715
30960,1165,711
30965,1168,717
30970,1177,719
30975,1174,715
30980,1181,718
30985,1177,725
30990,1184,725
30995,1182,729
31000,1182,732
31005,1191,728
31010,1196,738
31015,1189,747
31020,1182,746
31025,1181,749
31030,1183,753
31035,1178,757
31040,1178,769
31045,1184,770
31050,1183,773
31055,1167,781
31060,1177,783
31065,1166,791
31070,1159,791
31075,1163,796
31080,1152,811
31085,1152,808
31090,1147,808
31095,1145,814
31100,1138,820
31105,1142,827
31110,1126,825
31115,1124,836
31120,1134,833
31125,1129,842
31130,1138,838
31135,1115,848
31140,1125,845
31145,1116,854
31150,1104,854
31155,1109,856
31160,1103,859
31165,1105,864
31170,1105,864
31175,1101,865
31180,1094,862
31185,1097,860
31190,1090,863
31195,1096,864
31200,1091,865
31205,1081,871
31210,1076,868
31215,1084,871
31220,1078,866
31225,1069,871
31230,1071,869
31235,1070,866
31240,1065,865
31245,1067,867
31250,1062,867
31255,1053,862
31260,1047,869
31265,1045,863
31270,1046,857
31275,1031,857
31280,1034,856
31285,1024,858
31290,1020,850
31295,1017,855
31300,1006,855
31305,995,851
31310,994,852
31315,978,852
31320,974,850
31325,963,843
31330,954,847
31335,957,841
31340,932,841
31345,920,846
31350,911,844
31355,911,839
31360,909,840
31365,902,840
31370,884,834
31375,873,840
31380,862,833
31385,847,835
31390,841,834
31395,841,830
31400,831,829
31405,821,833
31410,812,832
31415,806,829
31420,800,829
31425,791,830
31430,796,826
31435,767,829
31440,760,822
31445,762,825
31450,766,818
31455,758,821
31460,750,817
31465,749,818
31470,752,817
31475,743,816
31480,750,811
31485,747,813
31490,740,808
31495,761,809
31500,745,801
31505,749,796
31510,761,795
31515,768,800
31520,771,794
31525,777,793
31530,788,788
31535,786,783
31540,799,781
31545,805,776
31550,826,774
31555,828,768
31560,836,766
31565,847,758
31570,854,761
31575,870,757
31580,888,746
31585,901,751
31590,912,743
31595,917,743
31600,924,739
31605,955,734
31610,959,737
31615,967,725
31620,981,726
31625,994,725
31630,1008,722
31635,1018,715
31640,1036,712
31645,1053,715
31650,1057,715
31655,1062,711
31660,1080,711
31665,1092,710
31670,1107,708
31675,1126,702
31680,1123,706
31685,1120,710
31690,1130,702
31695,1135,706
31700,1157,712
31705,1158,708
31710,1167,709
31715,1169,714
31720,1174,714
31725,1173,715
31730,1170,720
31735,1179,725
31740,1183,733
31745,1187,725
31750,1181,732
31755,1186,732
31760,1185,732
31765,1176,740
31770,1192,746
31775,1188,753
31780,1186,755
31785,1181,760
31790,1177,760
31795,1179,766
31800,1165,768
31805,1171,772
31810,1176,781
31815,1174,784
31820,1167,796
31825,1157,795
31830,1163,803
31835,1160,804
31840,1150,811
31845,1149,811
31850,1143,815
31855,1145,818
31860,1137,822
31865,1124,830
31870,1130,838
31875,1127,836
31880,1128,837
31885,1123,840
31890,1116,845
31895,1118,846
31900,1115,850
31905,1108,861
31910,1109,860
31915,1100,858
31920,1100,862
31925,1104,860
31930,1092,869
31935,1090,867
31940,1093,867
31945,1098,865
31950,1083,866
31955,1085,865
31960,1077,869
31965,1080,866
31970,1070,868
31975,1082,867
31980,1077,872
31985,1075,867
31990,1063,865
31995,1071,871
32000,1057,866
32005,1052,858
32009,1051,863
32015,1049,864
32020,1039,864
32025,1038,861
32030,1035,853
32034,1033,853
32040,1028,859
32045,1018,855
32049,999,852
32055,991,847
32060,986,847
32064,988,844
32070,967,852
32075,964,849
32080,965,848
32085,948,845
32090,948,847
32095,924,840
32100,930,843
32104,915,840
32110,911,841
32115,899,837
32119,878,839
32125,877,837
32130,876,830
32134,864,835
32140,853,833
32145,836,834
32150,841,828
32155,822,830
32159,808,831
32165,801,823
32170,796,826
32174,797,831
32180,785,824
32185,780,824
32189,784,825
32195,776,824
32200,762,824
32205,760,826
32210,750,823
32215,749,815
32220,749,811
32225,750,814
32229,748,814
32235,752,817
32240,755,809
32244,744,811
32250,755,800
32255,757,800
32259,760,802
32265,759,797
32270,778,793
32275,774,790
32280,789,787
32284,782,782
32290,790,784
32295,803,783
32299,812,778
32305,820,773
32310,832,767
32314,837,763
32320,852,757
32325,865,765
32330,881,752
32335,887,753
32340,893,747
32345,905,748
32350,924,736
32354,942,738
32360,957,733
32365,957,733
32369,966,729
32375,994,725
32380,993,726
32384,1011,724
32390,1019,717
32395,1036,714
32400,1046,712
32405,1067,713
32409,1081,707
32415,1083,712
32420,1088,706
32424,1100,711
32430,1116,707
32435,1110,708
32439,1122,707
32445,1129,704
32450,1147,712
32455,1146,710
32460,1154,711
32465,1163,706
32470,1170,708
32475,1173,716
32479,1175,719
32485,1188,721
32490,1181,721
32494,1183,728
32500,1186,730
32505,1196,734
32509,1180,734
32515,1188,742
32520,1189,743
32525,1191,743
32530,1188,751
32534,1181,755
32540,1184,756
32545,1176,762
32549,1174,768
32555,1178,774
32560,1172,779
32564,1170,783
32570,1170,787
32575,1162,799
32580,1157,795
32585,1152,801
32590,1153,807
32595,1152,809
32600,1149,814
32604,1144,819
32610,1140,818
32615,1134,825
32619,1133,832
32625,1125,835
32630,1114,835
32634,1122,844
32640,1117,839
32645,1128,851
32650,1112,847
32655,1111,850
32659,1120,861
32665,1111,861
32670,1099,862
32674,1101,862
32680,1097,866
32685,1103,864
32689,1103,868
32695,1087,866
32700,1081,870
32705,1090,868
32710,1081,870
32715,1083,867
32720,1083,871
32725,1072,870
32729,1077,873
32735,1065,868
32740,1070,866
32744,1062,865
32750,1062,867
32755,1060,865
32759,1050,865
32765,1049,863
32770,1036,863
32775,1035,858
32780,1036,858
32785,1029,860
32790,1023,857
32795,1015,856
32800,1013,854
32805,1009,853
32810,992,851
32815,982,849
32820,982,849
32825,972,850
32830,966,844
32835,963,850
32840,951,844
32845,944,843
32850,941,839
32855,919,841
32860,914,838
32865,907,843
32870,898,834
32875,890,837
32880,878,838
32885,865,838
32890,844,834
32895,851,838
32900,840,838
32905,827,830
32910,816,828
32915,815,830
32920,805,828
32925,804,830
32930,792,826
32935,770,827
32940,763,823
32945,767,827
32950,763,823
32955,767,821
32960,756,818
32965,756,813
32970,754,823
32975,751,820
32980,745,812
32985,753,811
32990,746,811
32995,745,806
33000,751,808
33005,746,806
33010,751,803
33015,756,798
33020,758,795
33025,770,791
33030,769,788
33035,790,787
33040,791,786
33045,792,784
33050,811,780
33055,816,772
33060,829,771
33065,829,771
33070,848,769
33075,850,758
33080,859,756
33085,879,758
33090,885,746
33095,903,746
33100,921,740
33105,925,737
33110,935,730
33115,948,731
33120,962,735
33125,985,726
33130,985,722
33135,1011,720
33140,1022,718
33145,1032,719
33150,1042,715
33155,1052,716
33160,1064,710
33165,1082,710
33170,1091,708
33175,1100,711
33180,1101,707
33185,1124,708
33190,1127,706
33195,1140,706
33200,1147,707
33205,1147,703
33210,1151,710
33215,1156,714
33220,1164,711
33225,1174,708
33230,1169,712
33235,1173,716
33240,1184,719
33245,1178,725
33250,1181,730
33255,1188,729
33260,1181,732
33265,1189,735
33270,1187,740
33275,1179,748
33280,1187,755
33285,1182,747
33290,1190,755
33295,1182,763
33300,1173,768
33305,1184,768
33310,1177,770
33315,1172,782
33320,1163,785
33325,1166,785
33330,1158,792
33335,1161,804
33340,1157,804
33345,1160,806
33350,1145,809
33355,1138,814
33360,1141,821
33365,1138,827
33370,1129,831
33375,1127,830
33380,1133,829
33385,1122,842
33390,1112,844
33395,1119,841
33400,1116,850
33405,1112,853
33410,1102,853
33415,1094,858
33420,1092,858
33425,1112,859
33430,1103,861
33435,1094,859
33440,1093,864
33445,1091,866
33450,1090,873
33455,1095,865
33460,1086,874
33465,1081,870
33470,1078,869
33475,1075,865
33480,1070,863
33485,1089,866
33490,1069,866
33495,1071,869
33500,1063,867
33505,1059,871
33510,1056,863
33515,1050,866
33520,1044,863
33525,1043,866
33530,1039,855
33535,1019,861
33540,1027,850
33545,1021,854
33550,1013,853
33555,1008,850
33560,1000,857
33565,991,848
33570,993,854
33575,985,850
33580,977,845
33585,960,845
33590,956,850
33595,954,841
33600,935,844
33605,936,839
33610,920,840
33615,913,835
33620,905,842
33625,903,835
33630,895,842
33635,871,838
33640,868,839
33645,853,831
33650,842,831
33655,836,831
33660,827,832
33665,818,830
33670,808,832
33675,806,833
33680,801,834
33685,788,834
33690,786,831
33695,781,828
33700,772,826
33705,763,820
33710,753,821
33715,751,820
33720,752,820
33725,750,818
33730,753,819
33735,744,813
33740,751,810
33745,755,805
33750,742,808
33755,746,809
33760,755,806
33765,757,803
33770,766,794
33775,772,795
33780,766,788
33785,771,788
33790,780,785
33795,791,784
33800,800,781
33805,805,774
33810,821,771
33815,823,772
33820,837,764
33825,843,769
33830,854,757
33835,863,760
33840,885,754
33845,890,748
33850,911,747
33855,915,745
33860,933,737
33865,953,737
33870,963,731
33875,973,726
33880,986,723
33885,995,721
33890,1008,722
33895,1013,722
33900,1032,718
33905,1054,717
33910,1054,709
33915,1070,707
33920,1080,711
33925,1081,704
33930,1109,706
33935,1112,708
33940,1115,706
33945,1127,708
33950,1131,706
33955,1136,706
33960,1143,707
33965,1156,712
33970,1159,714
33975,1171,712
33980,1173,717
33985,1170,721
33990,1176,716
33995,1178,721
34000,1180,718
34005,1188,725
34010,1190,729
34015,1182,735
34020,1182,743
34025,1189,740
34030,1189,744
34035,1181,748
34040,1189,757
34045,1184,760
34050,1164,759
34055,1184,771
34060,1160,771
34065,1176,776
34070,1172,783
34075,1172,787
34080,1172,793
34085,1159,790
34090,1155,798
34095,1146,804
34100,1149,810
34105,1148,813
34110,1149,816
34115,1144,824
34120,1145,828
34125,1135,833
34130,1121,832
34135,1125,833
34140,1128,837
34145,1123,844
34150,1117,844
34155,1114,849
34160,1106,855
34165,1107,862
34170,1108,858
34175,1108,858
34180,1097,863
34185,1100,860
34190,1092,865
34195,1086,869
34200,1085,864
34205,1090,865
34210,1082,860
34215,1083,872
34220,1090,869
34225,1086,870
34230,1088,872
34235,1073,867
34240,1077,868
34245,1072,865
34250,1061,862
34255,1063,868
34260,1062,867
34265,1052,865
34270,1057,861
34275,1049,865
34280,1038,862
34285,1033,860
34290,1024,858
34295,1025,859
34300,1034,859
34305,1014,860
34310,1012,850
34315,1000,857
34320,998,853
34325,986,851
34330,983,852
34335,972,842
34340,974,838
34345,943,846
34350,945,841
34355,943,838
34360,935,846
34365,925,840
34370,907,841
34375,909,836
34380,894,838
34385,872,834
34390,862,831
34395,860,835
34400,853,836
34405,838,835
34410,832,837
34415,826,832
34420,820,833
34425,806,832
34430,799,827
34435,792,826
34440,777,828
34445,792,827
34450,769,831
34455,766,830
34460,768,824
34465,762,817
34470,757,818
34475,746,820
34480,747,818
34485,745,817
34490,748,813
34495,750,811
34500,747,809
34505,750,809
34510,751,802
34515,754,802
34520,758,797
34525,757,797
34530,769,792
34535,771,788
34540,778,787
34545,796,784
34550,800,785
34555,789,780
34560,817,774
34565,815,771
34570,831,768
34575,846,761
34580,851,766
34585,872,754
34590,867,758
34595,883,750
34600,898,746
34605,906,741
34610,933,740
34615,934,735
34620,952,736
34625,967,735
34630,973,729
34635,984,723
34640,1004,726
34645,1011,724
34650,1028,717
34655,1041,718
34660,1045,715
34665,1065,712
34670,1063,712
34675,1078,703
34680,1090,707
34685,1112,709
34690,1113,706
34695,1126,705
34700,1139,707
34705,1145,710
34710,1132,708
34715,1149,711
34720,1161,711
34725,1169,712
34730,1164,713
34735,1174,715
34740,1181,718
34745,1182,722
34750,1176,718
34755,1177,724
34760,1188,724
34765,1190,731
34770,1180,735
34775,1190,744
34780,1186,746
34785,1189,744
34790,1182,750
34795,1188,755
34800,1184,758
34805,1180,762
34810,1183,767
34815,1179,771
34820,1170,779
34825,1173,781
34830,1168,779
34835,1161,790
34840,1157,794
34845,1161,800
34850,1151,804
34855,1144,812
34860,1142,810
34865,1142,814
34870,1138,818
34875,1140,828
34880,1134,832
34885,1125,836
34890,1127,843
34895,1129,845
34900,1125,845
34905,1119,852
34910,1110,851
34915,1111,847
34920,1109,860
34925,1106,859
34930,1105,857
34935,1096,860
34940,1103,865
34945,1099,870
34950,1097,868
34955,1093,866
34960,1092,870
34965,1090,864
34970,1084,872
34975,1087,867
34980,1076,870
34985,1069,863
34990,1070,864
34995,1067,865
35000,1064,870
35005,1066,868
35010,1068,868
35015,1056,871
35020,1059,863
35025,1056,861
35030,1043,862
35035,1042,856
35040,1031,859
35045,1028,861
35050,1030,856
35055,1024,858
35060,1012,856
35065,1003,851
35070,996,851
35075,991,853
35080,994,843
35085,986,849
35090,973,852
35095,965,851
35100,951,845
35105,947,842
35110,920,844
35115,925,843
35120,916,840
35125,906,844
35130,899,841
35135,886,837
35140,883,841
35145,859,836
35150,855,836
35155,854,834
35160,839,831
35165,834,834
35170,827,833
35175,811,831
35180,801,832
35185,810,828
35190,786,830
35195,787,824
35200,778,826
35205,773,821
35210,763,822
35215,761,827
35220,757,818
35225,752,820
35230,750,819
35235,754,813
35240,749,813
35245,752,811
35250,746,812
35255,744,808
35260,757,805
35265,744,800
35270,760,801
35275,762,802
35280,760,799
35285,769,795
35290,779,788
35295,781,780
35300,778,782
35305,796,782
35310,804,774
35315,807,775
35320,808,771
35325,841,772
35330,843,765
35335,850,759
35340,866,756
35345,883,751
35350,887,751
35355,898,743
35360,918,744
35365,918,742
35370,942,744
35375,948,738
35380,966,732
35385,982,727
35390,986,721
35395,1007,725
35400,1017,728
35405,1031,717
35410,1042,712
35415,1053,720
35420,1055,715
35425,1081,707
35430,1083,708
35435,1100,707
35440,1103,710
35445,1113,707
35450,1112,706
35455,1133,709
35460,1146,710
35465,1150,709
35470,1147,709
35475,1155,708
35480,1165,711
35485,1162,714
35490,1169,719
35495,1172,717
35500,1190,723
35505,1180,722
35510,1189,732
35515,1188,730
35520,1191,737
35525,1187,736
35530,1188,739
35535,1187,742
35540,1186,746
35545,1190,748
35550,1181,752
35555,1171,762
35560,1183,767
35565,1177,772
35570,1171,777
35575,1162,781
35580,1171,783
35585,1169,785
35590,1157,793
35595,1158,800
35600,1155,806
35605,1158,803
35610,1150,809
35615,1141,813
35620,1146,816
35625,1148,821
35630,1131,829
35635,1141,829
35640,1135,839
35645,1124,838
35650,1124,841
35655,1126,846
35660,1109,842
35665,1121,850
35670,1118,848
35675,1110,855
35680,1101,855
35685,1101,861
35690,1094,866
35695,1103,861
35700,1091,867
35705,1088,866
35710,1095,862
35715,1089,865
35720,1076,868
35725,1091,870
35730,1075,866
35735,1076,864
35740,1072,866
35745,1072,866
35750,1065,868
35755,1068,868
35760,1065,864
35765,1063,869
35770,1050,863
35775,1050,868
35780,1053,862
35785,1043,859
35790,1040,860
35795,1035,858
35800,1021,851
35805,1021,857
35810,1017,859
35815,1009,851
35820,988,848
35825,986,851
35830,988,848
35835,979,853
35840,976,850
35845,968,847
35850,970,845
35855,943,844
35860,947,842
35865,937,842
35870,930,842
35875,913,839
35880,901,838
35885,894,835
35890,888,834
35895,872,834
35900,864,841
35905,869,832
35910,851,838
35915,834,832
35920,832,832
35925,826,833
35930,812,828
35935,793,826
35940,799,823
35945,789,828
35950,784,829
35955,772,826
35960,775,826
35965,766,822
35970,758,815
35975,763,822
35980,758,817
35985,758,818
35990,752,813
35995,748,813
36000,743,813
36005,746,812
36010,749,808
36015,756,804
36020,754,799
36025,755,796
36030,751,803
36035,764,795
36040,769,799
36045,769,787
36050,789,786
36055,784,782
36060,804,777
36065,812,779
36070,817,776
36075,828,767
36080,834,767
36085,854,765
36090,857,760
36095,875,757
36100,895,753
36105,895,751
36110,907,750
36115,915,744
36120,936,738
36125,947,731
36130,953,735
36135,976,732
36140,987,718
36145,996,719
36150,1018,720
36155,1020,718
36160,1032,717
36165,1048,714
36170,1052,710
36175,1068,708
36180,1079,709
36185,1094,713
36190,1098,711
36195,1116,709
36200,1122,712
36205,1130,703
36210,1135,713
36215,1135,707
36220,1152,707
36225,1159,708
36230,1161,710
36235,1167,712
36240,1178,715
36245,1174,715
36250,1181,717
36255,1184,723
36260,1175,722
36265,1188,721
36270,1187,729
36275,1184,731
36280,1180,739
36285,1189,737
36290,1189,746
36295,1184,748
36300,1182,751
36305,1171,763
36310,1175,762
36315,1186,762
36320,1177,771
36325,1178,770
36330,1162,777
36335,1161,785
36340,1165,787
36345,1166,792
36350,1159,802
36355,1152,803
36360,1157,809
36365,1143,815
36370,1145,822
36375,1138,821
36380,1140,827
36385,1129,826
36390,1127,831
36395,1124,838
36400,1127,838
36405,1120,840
36410,1128,850
36415,1111,848
36420,1108,855
36425,1107,859
36430,1118,857
36435,1109,862
36440,1099,863
36445,1103,865
36450,1104,864
36455,1100,864
36460,1083,864
36465,1088,874
36470,1084,867
36475,1088,867
36480,1091,872
36485,1081,869
36490,1080,868
36495,1074,866
36500,1066,869
36505,1075,867
36510,1068,867
36515,1070,865
36520,1056,869
36525,1063,866
36530,1052,865
36535,1046,861
36540,1049,865
36545,1039,857
36550,1041,854
36555,1024,858
36560,1014,855
36565,1012,859
36570,1010,854
36575,994,856
36580,998,851
36585,991,849
36590,978,839
36595,972,850
36600,957,848
36605,946,841
36610,950,845
36615,943,844
36620,931,837
36625,915,832
36630,910,843
36635,901,840
36640,894,833
36645,881,834
36650,864,839
36655,864,841
36660,856,838
36665,848,832
36670,830,836
36675,819,837
36680,815,828
36685,813,830
36690,803,825
36695,792,829
36700,784,824
36705,775,826
36710,771,829
36715,763,830
36720,765,823
36725,755,822
36730,758,824
36735,750,820
36740,756,814
36745,753,810
36750,752,813
36755,750,809
36760,746,810
36765,747,811
36770,752,804
36775,750,799
36780,755,801
36785,765,798
36790,760,791
36795,779,787
36800,787,788
36805,784,792
36810,791,783
36815,802,781
36820,812,775
36825,817,776
36830,836,766
36835,838,768
36840,851,761
36845,857,758
36850,879,758
36855,884,750
36860,897,748
36865,912,749
36870,924,745
36875,937,744
36880,953,741
36885,962,732
36890,981,736
36895,982,726
36900,1000,722
36905,1019,717
36910,1027,717
36915,1037,711
36920,1051,716
36925,1050,717
36930,1076,709
36935,1089,717
36940,1093,712
36945,1105,708
36950,1107,705
36955,1122,710
36960,1126,706
36965,1135,712
36970,1146,703
36975,1154,703
36980,1157,710
36985,1153,707
36990,1168,713
36995,1176,714
37000,1171,717
37005,1181,718
37010,1192,723
37015,1191,719
37020,1192,731
37025,1189,730
37030,1180,736
37035,1180,735
37040,1192,741
37045,1181,745
37050,1184,753
37055,1182,754
37060,1180,756
37065,1185,763
37070,1182,768
37075,1177,775
37080,1177,776
37085,1178,780
37090,1168,790
37095,1158,790
37100,1164,794
37105,1160,803
37110,1155,813
37115,1140,815
37120,1148,806
37125,1139,819
37130,1141,822
37135,1138,828
37140,1136,829
37145,1128,836
37150,1118,840
37155,1123,846
37160,1116,846
37165,1117,843
37170,1120,850
37175,1105,855
37180,1106,856
37185,1112,857
37190,1107,860
37195,1100,867
37200,1101,863
37205,1090,864
37210,1094,865
37215,1090,863
37220,1085,873
37225,1084,870
37230,1096,868
37235,1092,865
37240,1074,872
37245,1082,865
37250,1089,871
37255,1076,860
37260,1059,864
37265,1060,868
37270,1069,868
37275,1056,865
37280,1058,862
37285,1050,866
37290,1052,865
37295,1048,860
37300,1030,855
37305,1022,859
37310,1022,855
37315,1017,852
37320,1018,863
37325,1004,858
37330,998,855
37335,997,849
37340,984,851
37345,970,848
37350,970,842
37355,962,843
37360,947,849
37365,945,842
37370,935,840
37375,923,838
37380,919,836
37385,905,837
37390,891,834
37395,890,837
37400,872,835
37405,869,834
37410,849,832
37415,857,834
37420,842,833
37425,834,833
37430,826,834
37435,822,829
37440,807,834
37445,806,826
37450,799,830
37455,781,825
37460,783,828
37465,776,827
37470,761,823
37475,763,820
37480,750,822
37485,754,819
37490,754,821
37495,751,817
37500,752,812
37505,744,818
37510,744,811
37515,754,813
37520,738,798
37525,759,801
37530,760,800
37535,763,797
37540,766,794
37545,775,791
37550,774,791
37555,778,785
37560,788,781
37565,798,785
37570,801,776
37575,818,775
37580,824,770
37585,835,763
37590,840,769
37595,860,763
37600,859,756
37605,874,758
37610,891,750
37615,905,750
37620,912,746
37625,938,740
37630,940,736
37635,961,736
37640,957,735
37645,973,726
37650,994,727
37655,1001,718
37660,1017,719
37665,1025,721
37670,1045,718
37675,1051,712
37680,1060,711
37685,1081,708
37690,1082,711
37695,1097,712
37700,1107,706
37705,1115,703
37710,1122,705
37715,1131,707
37720,1140,704
37725,1146,710
37730,1154,712
37735,1159,713
37740,1157,714
37745,1169,714
37750,1183,713
37755,1176,710
37760,1175,718
37765,1184,717
37770,1183,726
37775,1184,725
37780,1184,730
37785,1187,736
37790,1186,741
37795,1185,747
37800,1194,747
37805,1179,745
37810,1185,759
37815,1180,765
37820,1181,761
37825,1181,763
37830,1178,778
37835,1174,775
37840,1173,784
37845,1175,785
37850,1159,793
37855,1162,793
37860,1160,804
37865,1151,802
37870,1148,810
37875,1146,812
37880,1139,818
37885,1136,819
37890,1140,829
37895,1124,830
37900,1139,834
37905,1120,839
37910,1124,840
37915,1101,846
37920,1111,844
37925,1118,852
37930,1111,858
37935,1101,860
37940,1106,861
37945,1092,858
37950,1100,862
37955,1104,867
37960,1089,868
37965,1103,862
37970,1092,869
37975,1089,871
37980,1092,866
37985,1084,867
37990,1087,870
37995,1076,867
38000,1073,870
38005,1077,867
38010,1078,867
38015,1066,864
38020,1070,868
38025,1063,867
38030,1053,867
38035,1061,869
38040,1052,866
38045,1050,862
38050,1040,858
38055,1023,859
38060,1035,857
38065,1021,858
38070,1016,848
38075,1007,850
38080,1001,852
38085,996,853
38090,983,853
38095,977,847
38100,978,843
38105,959,842
38110,959,850
38115,948,841
38120,936,842
38125,940,838
38130,925,843
38135,907,837
38140,907,839
38145,891,836
38150,889,837
38155,877,838
38160,871,838
38165,856,835
38170,844,834
38175,833,834
38180,825,832
38185,818,832
38190,807,831
38195,806,827
38200,799,828
38205,792,829
38210,785,829
38215,774,825
38220,766,825
38225,767,825
38230,755,823
38235,755,822
38240,765,825
38245,741,815
38250,751,817
38255,742,816
38260,739,808
38265,747,811
38270,752,812
38275,746,801
38280,748,806
38285,756,801
38290,761,793
38295,766,798
38300,759,791
38305,772,791
38310,790,790
38315,793,782
38320,797,777
38325,817,776
38330,821,775
38335,817,768
38340,833,767
38345,846,762
38350,858,762
38355,871,757
38360,882,754
38365,905,753
38370,909,748
38375,916,750
38380,925,740
38385,946,737
38390,954,733
38395,976,729
38400,986,724
38405,997,721
38410,1008,720
38415,1013,719
38420,1035,720
38425,1043,714
38430,1059,711
38435,1066,706
38440,1079,706
38445,1092,710
38450,1097,707
38455,1102,702
38460,1104,709
38465,1126,708
38470,1125,708
38475,1134,706
38480,1144,712
38485,1145,714
38490,1152,705
38495,1162,711
38500,1168,716
38505,1177,714
38510,1180,714
38515,1176,721
38520,1183,720
38525,1183,726
38530,1179,729
38535,1188,733
38540,1183,731
38545,1193,739
38550,1185,748
38555,1192,749
38560,1185,750
38565,1193,755
38570,1176,765
38575,1180,768
38580,1179,769
38585,1173,779
38590,1169,778
38595,1170,790
38600,1175,791
38605,1169,794
38610,1159,794
38615,1158,805
38620,1157,814
38625,1158,812
38630,1153,817
38635,1144,823
38640,1133,828
38645,1137,824
38650,1134,829
38655,1133,833
38660,1129,839
38665,1111,841
38670,1113,849
38675,1108,848
38680,1115,855
38685,1108,848
38690,1112,855
38695,1109,856
38700,1092,860
38705,1105,861
38710,1090,866
38715,1096,866
38720,1098,862
38725,1088,867
38730,1090,868
38735,1083,870
38740,1092,870
38745,1087,875
38750,1084,867
38755,1074,869
38760,1075,868
38765,1065,869
38770,1062,864
38775,1069,868
38780,1055,863
38785,1059,864
38790,1052,859
38795,1048,856
38800,1046,858
38805,1044,867
38810,1041,861
38815,1030,857
38820,1016,861
38825,1015,855
38830,1016,854
38835,1004,850
38840,998,855
38845,987,849
38850,978,854
38855,974,852
38860,960,843
38865,952,843
38870,950,844
38875,937,841
38880,931,840
38885,917,843
38890,908,845
38895,896,841
38900,892,841
38905,880,837
38910,867,833
38915,862,830
38920,853,837
38925,849,832
38930,828,829
38935,821,830
38940,818,832
38945,816,827
38950,803,832
38955,799,826
38960,780,825
38965,776,826
38970,770,824
38975,772,824
38980,762,824
38985,755,826
38990,747,822
38995,753,821
39000,759,819
39005,736,816
39010,752,815
39015,747,812
39020,744,811
39025,757,805
39030,745,804
39035,759,804
39040,754,798
39045,759,800
39050,776,792
39055,763,789
39060,776,790
39065,788,784
39070,791,787
39075,809,781
39080,806,781
39085,821,774
39090,822,769
39095,841,767
39100,856,763
39105,859,757
39110,875,756
39115,890,750
39120,885,749
39125,914,744
39130,922,741
39135,928,737
39140,941,732
39145,962,727
39150,970,727
39155,983,725
39160,997,725
39165,1009,719
39170,1030,721
39175,1040,718
39180,1049,714
39185,1064,710
39190,1077,706
39195,1088,714
39200,1089,705
39205,1102,709
39210,1107,709
39215,1122,706
39220,1134,706
39225,1140,703
39230,1149,706
39235,1147,710
39240,1168,710
39245,1153,712
39250,1164,717
39255,1170,711
39260,1177,715
39265,1178,722
39270,1177,722
39275,1180,721
39280,1185,725
39285,1187,729
39290,1185,735
39295,1177,738
39300,1188,738
39305,1191,742
39310,1192,749
39315,1189,754
39320,1178,756
39325,1177,764
39330,1177,770
39335,1172,772
39340,1175,783
39345,1165,777
39350,1168,788
39355,1170,793
39360,1167,789
39365,1147,805
39370,1161,810
39375,1148,809
39380,1140,814
39385,1137,814
39390,1147,822
39395,1136,826
39400,1138,832
39405,1131,838
39410,1126,833
39415,1116,836
39420,1126,845
39425,1116,836
39430,1113,849
39435,1106,852
39440,1112,852
39445,1114,857
39450,1102,859
39455,1111,860
39460,1104,863
39465,1097,865
39470,1091,874
39475,1100,864
39480,1090,871
39485,1090,870
39490,1079,865
39495,1079,869
39500,1070,868
39505,1079,867
39510,1070,859
39515,1081,868
39520,1070,868
39525,1064,869
39530,1054,867
39535,1064,863
39540,1048,865
39545,1041,868
39550,1037,859
39555,1041,860
39560,1037,860
39565,1031,853
39570,1025,860
39575,1030,854
39580,1004,855
39585,1014,853
39590,1002,854
39595,995,851
39600,982,849
39605,982,850
39610,983,846
39615,962,842
39620,957,847
39625,949,843
39630,940,841
39635,924,844
39640,918,839
39645,909,840
39650,893,838
39655,896,835
39660,876,837
39665,868,837
39670,863,836
39675,859,838
39680,840,832
39685,830,837
39690,827,831
39695,809,835
39700,811,831
39705,793,827
39710,792,829
39715,784,830
39720,780,828
39725,770,826
39730,766,824
39735,758,826
39740,760,820
39745,749,821
39750,750,819
39755,747,816
39760,754,819
39765,743,808
39770,745,811
39775,739,808
39780,755,808
39785,746,800
39790,746,802
39795,757,797
39800,763,797
39805,770,795
39810,772,790
39815,776,790
39820,785,784
39825,785,781
39830,805,776
39835,810,774
39840,823,773
39845,830,767
39850,841,770
39855,855,756
39860,856,758
39865,872,758
39870,880,753
39875,899,747
39880,915,741
39885,917,741
39890,938,741
39895,955,732
39900,964,734
39905,961,727
39910,990,721
39915,1010,724
39920,1011,718
39925,1027,717
39930,1049,716
39935,1048,715
39940,1071,715
39945,1076,707
39950,1085,708
39955,1102,707
39960,1102,706
39965,1102,709
39970,1117,707
39975,1131,709
39980,1140,709
39985,1148,707
39990,1150,709
39995,1163,711
