timestamp_ms,ir_finger,ir_toe
0,1038,643
5,1056,654
10,1054,655
15,1074,656
20,1074,662
25,1080,665
30,1093,671
35,1096,673
40,1114,678
45,1115,685
50,1123,692
55,1129,700
60,1136,706
65,1139,712
70,1155,719
75,1147,723
80,1167,732
85,1164,744
90,1166,743
95,1159,757
100,1173,761
105,1176,765
110,1185,774
115,1177,786
120,1183,792
125,1193,794
130,1187,805
135,1183,810
140,1179,813
145,1200,824
150,1192,838
155,1187,843
160,1188,842
165,1189,850
170,1182,854
175,1180,861
180,1181,870
185,1175,865
190,1187,877
195,1184,882
200,1182,882
205,1177,887
210,1170,898
215,1162,900
220,1159,896
225,1172,906
230,1162,907
235,1164,916
240,1165,915
245,1158,914
250,1152,922
255,1141,925
260,1150,922
265,1140,929
270,1136,927
275,1131,926
280,1127,927
285,1137,928
290,1131,930
295,1124,931
300,1124,931
305,1114,930
310,1126,931
315,1115,923
320,1110,927
325,1109,931
330,1112,930
335,1100,927
340,1106,922
345,1112,921
350,1106,923
355,1103,920
360,1101,912
365,1098,918
370,1088,913
375,1093,911
380,1090,916
385,1086,908
390,1078,904
395,1087,897
400,1086,906
405,1083,905
410,1086,900
415,1078,895
420,1083,900
425,1061,894
430,1069,894
435,1067,891
440,1071,889
445,1060,886
450,1050,884
455,1047,881
460,1060,882
465,1042,880
470,1045,876
475,1046,880
480,1045,871
485,1033,876
490,1037,873
495,1029,877
500,1023,870
505,1021,867
510,1015,872
515,1008,861
520,988,865
525,996,870
530,989,865
535,978,862
540,977,860
545,971,856
550,968,857
555,955,858
560,963,855
565,953,851
570,925,853
575,936,853
580,920,849
585,917,846
590,911,847
595,908,844
600,894,845
605,887,841
610,877,833
615,862,834
620,859,832
625,856,832
630,854,826
635,845,824
640,827,818
645,823,825
650,822,818
655,812,814
660,810,809
665,800,802
670,794,797
675,788,796
680,786,792
685,788,792
690,772,779
695,775,781
700,758,773
705,761,773
710,768,770
715,770,762
720,748,757
725,763,748
730,754,742
735,754,747
740,746,732
745,752,729
750,738,721
755,744,718
760,757,714
765,754,710
770,754,706
775,755,703
780,752,694
785,755,692
790,764,682
795,773,679
800,788,672
805,778,667
810,786,667
815,795,656
820,795,659
825,806,655
830,810,651
835,814,650
840,831,645
845,832,640
850,846,638
855,855,639
860,860,631
865,870,627
870,875,627
875,889,631
880,888,627
885,911,624
890,909,625
895,922,626
900,936,624
905,950,625
910,957,627
915,965,630
920,978,624
925,998,635
930,999,635
935,1013,638
940,1026,639
945,1020,641
950,1041,644
955,1044,652
960,1049,653
965,1050,657
970,1071,661
975,1091,667
980,1087,666
985,1106,681
990,1117,681
995,1111,686
1000,1117,690
1004,1132,699
1010,1139,701
1014,1150,704
1020,1144,717
1025,1147,718
1030,1150,728
1035,1164,743
1040,1151,741
1045,1171,752
1050,1178,761
1055,1169,763
1060,1175,769
1065,1181,777
1070,1185,784
1075,1187,791
1080,1180,803
1085,1187,816
1090,1188,817
1095,1191,819
1100,1187,825
1105,1188,834
1110,1185,839
1115,1194,844
1120,1190,849
1125,1181,860
1130,1180,863
1135,1184,869
1140,1182,874
1145,1181,882
1150,1180,884
1155,1168,891
1160,1175,896
1165,1161,900
1170,1165,902
1175,1166,903
1180,1163,904
1185,1157,917
1190,1153,915
1195,1156,912
1200,1152,923
1205,1141,918
1210,1139,925
1215,1139,929
1220,1136,928
1225,1136,931
1230,1127,933
1235,1131,927
1240,1125,929
1245,1123,931
1250,1129,927
1255,1120,933
1260,1113,930
1265,1115,928
1270,1121,929
1275,1114,922
1280,1115,926
1285,1104,926
1290,1105,927
1295,1110,930
1300,1107,915
1305,1098,915
1310,1106,924
1315,1102,914
1320,1090,917
1325,1087,910
1330,1090,914
1335,1092,916
1340,1082,904
1345,1091,911
1350,1081,904
1355,1084,903
1360,1086,901
1365,1075,898
1370,1068,895
1375,1070,891
1380,1079,892
1385,1073,888
1390,1055,898
1395,1067,881
1400,1055,881
1405,1056,885
1410,1049,884
1415,1048,880
1420,1041,878
1425,1043,874
1430,1041,877
1435,1035,873
1440,1029,873
1445,1028,876
1450,1019,867
1455,1018,869
1460,1011,862
1465,1004,868
1470,1004,868
1475,1000,865
1480,993,864
1485,987,867
1490,980,859
1495,971,859
1500,971,856
1505,967,862
1510,956,858
1515,945,853
1520,935,855
1525,929,847
1530,925,851
1535,920,846
1540,908,843
1545,895,847
1550,899,845
1555,882,841
1560,888,838
1565,878,837
1570,863,833
1575,851,824
1580,857,823
1585,843,826
1590,841,816
1595,834,824
1600,829,821
1605,813,813
1610,816,813
1615,805,804
1620,787,799
1625,791,795
1630,785,791
1635,779,788
1640,774,783
1645,775,786
1650,765,777
1655,766,773
1660,761,768
1665,755,768
1670,750,757
1675,739,747
1680,752,744
1685,756,745
1690,753,735
1695,753,726
1700,742,729
1705,760,721
1710,739,718
1715,751,716
1720,758,711
1725,759,706
1730,758,689
1735,754,689
1740,759,690
1745,774,682
1750,771,679
1755,772,669
1760,788,676
1765,793,668
1770,797,665
1775,807,655
1780,797,649
1785,819,646
1790,818,651
1795,834,643
1800,840,635
1805,842,635
1810,856,632
1815,870,631
1820,880,631
1825,888,627
1830,895,626
1835,908,621
1840,920,629
1845,931,629
1850,930,623
1855,942,625
1860,960,628
1865,964,631
1870,977,628
1875,986,628
1880,993,636
1885,996,631
1890,1020,634
1895,1031,641
1900,1032,645
1905,1036,643
1910,1057,651
1915,1062,654
1920,1075,657
1925,1084,667
1930,1084,668
1935,1095,669
1940,1106,675
1945,1112,684
1950,1119,690
1955,1131,696
1960,1128,707
1965,1142,704
1970,1147,720
1975,1147,725
1980,1145,724
1985,1154,732
1990,1157,745
1995,1159,748
2000,1172,761
2005,1169,763
2009,1184,771
2015,1186,777
2020,1184,787
2025,1183,794
2029,1181,799
2035,1185,802
2040,1191,809
2045,1186,813
2050,1188,822
2055,1188,827
2060,1188,832
2065,1180,850
2070,1188,848
2075,1186,855
2080,1183,856
2085,1184,865
2090,1180,872
2095,1186,877
2100,1171,880
2105,1177,883
2110,1183,888
2115,1174,898
2120,1172,900
2125,1164,901
2130,1158,907
2135,1164,906
2140,1159,911
2145,1156,914
2150,1157,917
2155,1142,922
2160,1149,922
2165,1139,922
2170,1146,931
2175,1136,925
2180,1138,925
2185,1127,929
2190,1126,931
2195,1118,938
2200,1124,924
2205,1123,929
2210,1123,926
2215,1111,928
2220,1109,923
2225,1120,932
2230,1113,929
2235,1113,924
2240,1101,915
2245,1110,922
2250,1102,922
2255,1106,922
2260,1103,923
2265,1098,918
2270,1096,915
2275,1102,919
2280,1099,912
2285,1089,908
2290,1092,908
2295,1087,911
2300,1081,904
2305,1092,907
2310,1088,899
2315,1078,904
2320,1088,895
2325,1079,889
2330,1080,891
2335,1072,887
2340,1062,892
2345,1063,886
2350,1058,885
2355,1063,884
2360,1057,887
2365,1051,885
2370,1045,881
2375,1051,878
2380,1041,883
2385,1046,876
2390,1037,875
2395,1024,875
2400,1030,871
2405,1020,872
2410,1016,869
2415,1011,867
2420,1002,861
2425,997,866
2430,995,862
2435,987,860
2440,985,859
2445,968,859
2450,970,855
2455,962,854
2460,961,850
2465,937,853
2470,943,847
2475,938,846
2480,929,852
2485,917,846
2490,918,847
2495,902,841
2500,894,849
2505,888,840
2510,886,836
2515,878,836
2520,877,836
2525,856,833
2530,851,830
2535,844,832
2540,841,825
2545,835,820
2550,823,823
2555,818,817
2560,808,817
2565,815,803
2570,804,805
2575,793,803
2580,780,791
2585,793,795
2590,786,783
2595,769,781
2600,764,776
2605,758,777
2610,764,770
2615,763,765
2620,751,759
2625,745,756
2630,753,749
2635,753,741
2640,746,740
2645,751,730
2650,748,730
2655,738,726
2660,752,718
2665,748,713
2670,745,710
2675,761,700
2680,746,698
2685,759,689
2690,766,684
2695,754,687
2700,779,680
2705,775,674
2710,787,669
2715,794,665
2720,789,663
2725,804,659
2730,804,659
2735,814,653
2740,825,648
2745,824,643
2750,829,638
2755,842,634
2760,853,632
2765,868,630
2770,869,629
2775,880,633
2780,888,628
2785,899,627
2790,914,623
2795,916,627
2800,924,624
2805,942,623
2810,958,627
2815,961,624
2820,977,628
2825,984,634
2830,990,634
2835,1004,636
2840,1007,638
2845,1020,636
2850,1021,640
2855,1034,643
2860,1047,646
2865,1065,651
2870,1058,652
2875,1079,657
2880,1088,664
2885,1093,673
2890,1094,670
2895,1112,683
2900,1115,689
2905,1130,688
2910,1129,700
2915,1136,701
2920,1143,713
2925,1148,719
2930,1150,727
2935,1158,727
2940,1160,734
2945,1162,747
2950,1164,755
2955,1177,761
2960,1173,762
2965,1175,774
2970,1181,782
2975,1182,791
2980,1182,795
2985,1187,805
2990,1192,803
2995,1189,815
3000,1193,819
3005,1187,828
3010,1204,833
3015,1181,843
3020,1186,847
3025,1180,856
3030,1188,858
3035,1181,865
3040,1185,867
3045,1181,870
3050,1181,875
3055,1179,884
3060,1172,890
3065,1177,896
3070,1175,897
3075,1168,909
3080,1167,908
3085,1158,909
3090,1160,912
3095,1155,916
3100,1153,920
3105,1150,920
3110,1143,923
3115,1146,920
3120,1144,919
3125,1143,925
3130,1139,929
3135,1127,929
3140,1135,930
3145,1134,930
3150,1125,926
3155,1121,934
3160,1124,935
3165,1121,932
3170,1121,928
3175,1110,930
3180,1109,933
3185,1107,927
3190,1114,930
3195,1108,929
3200,1102,922
3205,1111,921
3210,1099,925
3215,1101,918
3220,1097,916
3225,1099,914
3230,1093,915
3235,1077,916
3240,1089,912
3245,1088,907
3250,1092,911
3255,1087,908
3260,1079,902
3265,1079,902
3270,1076,900
3275,1071,893
3280,1082,895
3285,1066,892
3290,1069,886
3295,1063,889
3300,1068,887
3305,1056,891
3310,1062,883
3315,1053,885
3320,1050,881
3325,1050,878
3330,1051,874
3335,1038,882
3340,1035,872
3345,1026,873
3350,1023,872
3355,1022,872
3360,1029,871
3365,1021,864
3370,1017,862
3375,1006,860
3380,1005,863
3385,984,861
3390,996,860
3395,977,861
3400,973,860
3405,965,862
3410,955,852
3415,957,857
3420,947,858
3425,940,858
3430,931,854
3435,923,847
3440,922,843
3445,915,847
3450,912,845
3455,898,836
3460,889,841
3465,877,836
3470,872,833
3475,862,828
3480,851,837
3485,853,829
3490,844,825
3495,836,826
3500,835,818
3505,831,820
3510,819,808
3515,799,807
3520,809,809
3525,800,800
3530,795,795
3535,795,796
3540,781,788
3545,779,786
3550,778,779
3555,772,776
3560,771,777
3565,758,761
3570,764,765
3575,756,754
3580,748,747
3585,752,748
3590,748,747
3595,747,740
3600,747,736
3605,750,723
3610,751,718
3615,750,715
3620,752,714
3625,754,703
3630,755,698
3635,758,699
3640,759,686
3645,771,688
3650,769,679
3655,767,673
3660,779,668
3665,784,670
3670,787,656
3675,795,663
3680,803,650
3685,808,648
3690,824,649
3695,828,643
3700,833,642
3705,831,636
3710,851,633
3715,858,632
3720,873,630
3725,878,627
3730,885,626
3735,893,625
3740,906,625
3745,919,627
3750,931,625
3755,928,626
3760,935,621
3765,956,623
3770,965,624
3775,975,629
3780,978,631
3785,999,633
3790,997,638
3795,1017,640
3800,1033,640
3805,1032,640
3810,1037,650
3815,1063,645
3820,1062,654
3825,1072,660
3830,1071,663
3835,1086,666
3840,1105,677
3845,1103,677
3850,1101,686
3855,1123,692
3860,1127,699
3865,1146,705
3870,1130,712
3875,1146,717
3880,1148,723
3885,1150,728
3890,1157,735
3895,1165,743
3900,1160,750
3905,1174,761
3910,1169,764
3915,1162,767
3920,1180,773
3925,1198,779
3930,1184,788
3935,1185,799
3940,1186,803
3945,1189,812
3950,1191,816
3955,1191,827
3960,1184,833
3965,1188,841
3970,1195,847
3975,1186,850
3980,1181,860
3985,1188,863
3990,1181,871
3995,1186,877
4000,1179,876
4005,1174,879
4010,1174,885
4014,1164,892
4019,1173,897
4025,1170,894
4030,1165,899
4035,1158,901
4040,1158,912
4045,1156,918
4050,1158,914
4054,1160,920
4059,1153,919
4065,1142,921
4070,1144,925
4075,1144,931
4080,1137,927
4085,1129,929
4090,1131,928
4094,1129,932
4100,1118,931
4105,1128,935
4110,1125,929
4115,1121,935
4120,1110,932
4125,1113,937
4130,1111,926
4135,1116,926
4140,1114,929
4145,1101,923
4150,1101,921
4155,1104,919
4160,1099,930
4165,1095,918
4170,1093,921
4175,1102,916
4180,1095,915
4185,1100,918
4190,1093,909
4195,1085,908
4200,1091,909
4205,1084,904
4210,1083,907
4215,1078,901
4220,1079,903
4225,1075,901
4230,1071,895
4235,1077,894
4240,1064,894
4245,1075,888
4250,1066,886
4255,1062,886
4260,1059,886
4265,1057,887
4270,1063,884
4275,1056,881
4280,1040,878
4285,1042,877
4290,1042,879
4295,1025,867
4300,1032,873
4305,1035,874
4310,1012,871
4315,1022,869
4320,1006,867
4325,1006,869
4330,1005,866
4335,985,863
4340,987,860
4345,977,863
4350,977,861
4355,972,855
4360,955,859
4365,950,853
4370,944,857
4375,944,853
4380,936,856
4385,925,852
4390,919,852
4395,906,849
4400,909,842
4405,902,842
4410,884,841
4415,876,838
4420,880,839
4425,861,830
4430,859,831
4435,852,830
4440,846,827
4445,845,827
4450,820,821
4455,828,820
4460,811,822
4465,814,810
4470,811,815
4475,803,803
4480,798,800
4485,789,796
4490,778,791
4495,787,785
4500,764,786
4505,770,774
4510,762,774
4515,758,768
4520,763,762
4525,753,760
4530,751,758
4535,752,746
4540,741,739
4545,747,739
4550,752,733
4555,750,731
4560,741,721
4565,751,717
4570,746,711
4575,751,709
4580,760,706
4585,760,700
4590,751,692
4595,756,686
4600,772,682
4605,771,677
4610,777,671
4615,788,669
4620,777,662
4625,789,663
4630,799,653
4635,797,654
4640,804,653
4645,824,639
4650,831,640
4655,837,639
4660,846,638
4665,855,629
4670,863,636
4675,875,628
4680,876,625
4685,888,633
4690,896,625
4695,912,631
4700,919,626
4705,933,626
4710,950,628
4715,952,629
4720,964,633
4725,970,627
4730,977,623
4735,990,635
4740,989,632
4745,1008,633
4750,1018,640
4755,1032,638
4760,1041,645
4765,1054,649
4770,1060,651
4775,1076,656
4780,1084,660
4785,1089,667
4790,1089,676
4795,1095,674
4800,1114,686
4805,1125,688
4810,1119,694
4815,1134,704
4820,1132,702
4825,1137,712
4830,1147,717
4835,1158,731
4840,1153,730
4845,1155,742
4850,1175,748
4855,1158,753
4860,1172,758
4865,1177,768
4870,1185,772
4875,1182,778
4880,1188,791
4885,1177,794
4890,1182,797
4895,1180,812
4900,1190,816
4905,1185,820
4910,1187,831
4915,1192,841
4920,1188,838
4925,1191,845
4930,1188,853
4935,1191,859
4940,1185,865
4945,1185,877
4950,1182,873
4955,1182,877
4960,1180,882
4965,1163,888
4970,1168,898
4975,1171,900
4980,1168,901
4985,1162,909
4990,1160,910
4995,1167,911
5000,1155,914
5005,1165,923
5010,1160,916
5015,1154,924
5020,1140,922
5025,1143,928
5030,1148,928
5035,1136,928
5040,1125,933
5045,1137,926
5050,1131,939
5055,1124,927
5060,1133,928
5065,1121,931
5070,1113,933
5075,1111,926
5080,1112,932
5085,1120,924
5090,1111,929
5095,1108,923
5100,1109,924
5105,1103,927
5110,1100,926
5115,1096,923
5120,1100,918
5125,1108,917
5130,1092,920
5135,1085,912
5140,1092,912
5145,1098,908
5150,1083,903
5155,1086,905
5160,1085,911
5165,1078,901
5170,1078,903
5175,1080,902
5180,1082,896
5185,1085,890
5190,1075,894
5195,1076,893
5200,1066,892
5205,1062,885
5210,1064,887
5215,1060,882
5220,1063,885
5225,1059,880
5230,1044,883
5235,1036,882
5240,1033,873
5245,1032,872
5250,1032,872
5255,1024,873
5260,1018,867
5265,1016,872
5270,1020,872
5275,1010,869
5280,1001,868
5285,1002,863
5290,990,867
5295,988,862
5300,985,858
5305,977,868
5310,968,867
5315,959,859
5320,964,855
5325,956,855
5330,939,849
5335,931,852
5340,928,847
5345,919,847
5350,899,842
5355,898,842
5360,891,841
5365,890,840
5370,885,842
5375,874,836
5380,869,833
5385,855,832
5390,863,821
5395,836,824
5400,832,819
5405,829,816
5410,814,813
5415,813,811
5420,808,802
5425,804,804
5430,800,802
5435,786,796
5440,783,795
5445,780,789
5450,778,785
5455,764,781
5460,772,774
5465,764,771
5470,748,766
5475,761,759
5480,749,753
5485,757,750
5490,740,749
5495,752,740
5500,753,732
5505,762,734
5510,737,731
5515,752,718
5520,755,723
5525,754,709
5530,756,709
5535,753,702
5540,757,699
5545,767,689
5550,768,685
5555,773,682
5560,768,677
5565,778,674
5570,787,667
5575,789,669
5580,798,654
5585,802,658
5590,816,654
5595,830,647
5600,823,640
5605,837,639
5610,850,636
5615,860,637
5620,857,634
5625,875,633
5630,883,630
5635,895,627
5640,900,629
5645,907,625
5650,913,626
5655,928,628
5660,935,628
5665,950,623
5670,954,629
5675,969,630
5680,987,629
5685,991,630
5690,1000,631
5695,1004,641
5700,1016,641
5705,1020,638
5710,1031,644
5715,1041,650
5720,1055,646
5725,1067,653
5730,1072,661
5735,1084,662
5740,1081,669
5745,1101,676
5750,1112,682
5755,1110,687
5760,1117,689
5765,1123,700
5770,1134,703
5775,1142,710
5780,1144,712
5785,1159,726
5790,1147,727
5795,1165,736
5800,1163,745
5805,1160,750
5810,1169,752
5815,1177,760
5820,1168,772
5825,1175,777
5830,1183,783
5835,1178,789
5840,1184,803
5845,1186,802
5850,1185,806
5855,1193,818
5860,1196,824
5865,1188,828
5870,1189,837
5875,1189,848
5880,1178,862
5885,1185,861
5890,1177,863
5895,1178,871
5900,1182,878
5905,1172,881
5910,1182,879
5915,1169,886
5920,1161,891
5925,1166,900
5930,1166,899
5935,1171,902
5940,1170,906
5945,1164,910
5950,1154,914
5955,1159,913
5960,1155,924
5965,1149,926
5970,1146,924
5975,1135,923
5980,1137,924
5985,1137,930
5990,1133,924
5995,1133,931
6000,1128,930
6005,1120,928
6010,1122,933
6015,1113,930
6020,1129,930
6025,1120,933
6030,1116,928
6035,1122,923
6040,1116,929
6045,1110,926
6050,1109,927
6055,1111,925
6060,1093,923
6065,1096,921
6070,1098,914
6075,1105,912
6080,1089,911
6085,1095,913
6090,1084,915
6095,1100,913
6100,1102,904
6105,1096,902
6110,1089,900
6115,1081,903
6120,1084,909
6125,1075,900
6130,1070,897
6135,1064,896
6140,1080,893
6145,1058,884
6150,1071,882
6155,1063,884
6160,1072,880
6165,1060,883
6170,1062,883
6175,1053,888
6180,1042,879
6185,1043,877
6190,1044,874
6195,1034,873
6200,1036,877
6205,1038,869
6210,1028,867
6215,1029,870
6220,1020,864
6225,1012,870
6230,1005,867
6235,994,864
6240,997,865
6245,988,859
6250,988,861
6255,983,862
6260,976,860
6265,966,854
6270,947,858
6275,944,857
6280,937,850
6285,928,852
6290,937,850
6295,929,849
6300,917,848
6305,899,847
6310,894,845
6315,899,840
6320,885,841
6325,872,837
6330,865,838
6335,863,835
6340,852,830
6345,843,826
6350,847,829
6355,825,819
6360,824,818
6365,812,814
6370,810,809
6375,800,800
6380,799,802
6385,790,796
6390,785,793
6395,783,787
6400,779,791
6405,782,775
6410,764,781
6415,769,774
6420,758,761
6425,759,760
6430,755,763
6435,754,757
6440,750,747
6445,760,746
6450,746,739
6455,744,734
6460,745,728
6465,745,726
6470,747,715
6475,752,708
6480,755,709
6485,750,703
6490,752,697
6495,761,692
6500,771,687
6505,771,683
6510,776,678
6515,773,678
6520,786,669
6525,785,666
6530,796,656
6535,796,656
6540,808,650
6545,816,650
6550,819,649
6555,822,642
6560,832,641
6565,848,642
6570,856,630
6575,862,633
6580,866,626
6585,886,627
6590,891,623
6595,902,629
6600,922,626
6605,926,626
6610,934,625
6615,944,622
6620,954,620
6625,969,631
6630,966,632
6635,984,640
6640,991,630
6645,997,632
6650,1026,636
6655,1024,638
6660,1036,641
6665,1045,641
6670,1052,647
6675,1055,654
6680,1068,660
6685,1071,658
6690,1091,669
6695,1097,670
6700,1103,676
6705,1108,682
6710,1116,688
6715,1119,692
6720,1132,701
6725,1141,709
6730,1143,718
6735,1147,718
6740,1151,726
6745,1151,734
6750,1151,737
6755,1176,743
6760,1182,748
6765,1171,762
6770,1174,762
6775,1177,776
6780,1188,780
6785,1182,791
6790,1189,797
6795,1186,798
6800,1191,810
6805,1181,818
6810,1191,825
6815,1188,825
6820,1191,841
6825,1195,842
6830,1176,851
6835,1186,853
6840,1186,859
6845,1179,863
6850,1175,866
6855,1182,880
6860,1162,886
6865,1164,884
6870,1180,888
6875,1171,898
6880,1176,901
6885,1169,907
6890,1157,906
6895,1159,908
6900,1162,911
6905,1154,916
6910,1152,919
6915,1147,928
6920,1147,920
6925,1149,924
6930,1130,927
6935,1137,927
6940,1133,921
6945,1136,932
6950,1127,928
6955,1126,934
6960,1127,928
6965,1126,932
6970,1125,930
6975,1114,931
6980,1113,926
6985,1113,929
6990,1116,930
6995,1107,929
7000,1109,930
7005,1111,926
7010,1109,930
7015,1099,924
7020,1105,918
7025,1095,920
7030,1096,918
7035,1106,913
7040,1089,908
7045,1090,908
7050,1090,910
7055,1093,907
7060,1086,909
7065,1082,903
7070,1067,904
7075,1071,902
7080,1078,898
7085,1070,890
7090,1068,896
7095,1069,895
7100,1073,889
7105,1072,889
7110,1058,892
7115,1051,887
7120,1058,886
7125,1055,880
7130,1047,878
7135,1046,886
7140,1045,882
7145,1033,878
7150,1038,875
7155,1025,871
7160,1030,875
7165,1018,867
7170,1016,870
7175,1006,868
7180,1004,870
7185,1002,867
7190,993,864
7195,994,863
7200,981,861
7205,986,863
7210,971,865
7215,968,857
7220,957,857
7225,961,853
7230,943,856
7235,940,851
7240,928,854
7245,927,853
7250,916,850
7255,902,844
7260,910,842
7265,892,842
7270,884,837
7275,875,837
7280,877,827
7285,861,830
7290,853,833
7295,850,827
7300,836,822
7305,830,825
7310,822,820
7315,816,814
7320,809,810
7325,802,811
7330,807,807
7335,804,805
7340,796,801
7345,784,793
7350,793,790
7355,777,784
7360,766,780
7365,757,770
7370,756,764
7375,762,766
7380,753,759
7385,750,758
7390,748,753
7395,753,751
7400,751,735
7405,747,734
7410,751,727
7415,748,727
7420,745,722
7425,738,713
7430,743,708
7435,754,703
7440,759,696
7445,767,692
7450,764,684
7455,768,682
7460,773,681
7465,767,677
7470,780,670
7475,786,666
7480,795,663
7485,795,653
7490,804,654
7495,805,646
7500,816,641
7505,823,645
7510,824,637
7515,837,642
7520,855,632
7525,856,628
7530,867,636
7535,887,623
7540,890,622
7545,891,625
7550,913,631
7555,916,625
7560,919,624
7565,937,622
7570,953,621
7575,959,626
7580,971,633
7585,981,625
7590,988,629
7595,996,634
7600,1002,636
7605,1019,636
7610,1031,639
7615,1040,644
7620,1050,649
7625,1063,648
7630,1066,654
7635,1073,665
7640,1081,666
7645,1091,674
7650,1093,671
7655,1107,680
7660,1118,683
7665,1120,689
7670,1126,697
7675,1123,702
7680,1143,708
7685,1158,716
7690,1156,724
7695,1151,731
7700,1160,737
7705,1163,743
7710,1160,752
7715,1172,751
7720,1169,762
7725,1167,769
7730,1183,781
7735,1187,781
7740,1181,796
7745,1189,799
7750,1187,808
7755,1189,815
7760,1189,823
7765,1185,830
7770,1189,831
7775,1189,840
7780,1190,840
7785,1190,853
7790,1189,858
7795,1182,859
7800,1183,865
7805,1189,873
7810,1170,880
7815,1181,886
7820,1175,887
7825,1179,892
7830,1171,895
7835,1162,898
7840,1165,908
7845,1159,910
7850,1166,917
7855,1158,911
7860,1155,917
7865,1147,918
7870,1151,921
7875,1148,922
7880,1147,926
7885,1137,925
7890,1145,931
7895,1144,928
7900,1131,927
7905,1132,928
7910,1128,931
7915,1124,932
7920,1119,929
7925,1119,932
7930,1122,929
7935,1114,930
7940,1115,926
7945,1120,924
7950,1115,923
7955,1106,923
7960,1099,930
7965,1105,925
7970,1097,917
7975,1107,918
7980,1100,915
7985,1093,912
7990,1097,915
7995,1087,918
8000,1089,913
8005,1088,909
8010,1072,908
8015,1087,904
8020,1085,909
8025,1075,898
8029,1076,896
8035,1072,895
8039,1071,898
8045,1074,896
8050,1066,887
8055,1066,884
8060,1060,891
8064,1064,885
8070,1057,887
8074,1064,884
8080,1055,884
8085,1047,878
8090,1043,877
8095,1042,876
8100,1053,877
8105,1034,875
8109,1032,876
8115,1018,873
8119,1015,868
8125,1020,869
8130,1021,865
8135,997,864
8140,1002,859
8145,995,863
8150,992,864
8154,979,862
8160,962,863
8164,975,861
8170,966,860
8175,952,859
8180,942,853
8185,944,849
8189,929,856
8195,926,853
8200,915,847
8205,910,847
8210,899,849
8215,897,838
8220,885,842
8225,873,835
8230,871,837
8235,867,833
8240,853,832
8245,843,824
8250,843,824
8255,840,826
8260,828,817
8265,825,814
8270,807,814
8275,812,808
8280,808,804
8285,794,804
8290,789,802
8295,780,792
8300,788,789
8305,774,788
8310,771,781
8315,775,780
8320,776,776
8325,761,766
8330,761,760
8335,758,766
8340,752,753
8345,755,748
8350,747,740
8355,745,743
8360,753,734
8365,745,723
8370,756,723
8375,749,716
8380,744,710
8385,746,705
8390,752,697
8395,759,695
8400,764,689
8405,767,691
8410,761,682
8415,772,676
8420,783,672
8425,782,667
8430,788,659
8435,804,655
8440,802,652
8445,810,652
8450,823,656
8455,832,647
8460,826,633
8465,839,644
8470,842,636
8475,848,636
8480,868,633
8485,874,624
8490,877,633
8495,900,627
8500,896,626
8505,916,626
8510,917,628
8515,937,624
8520,943,621
8525,957,628
8530,960,631
8535,975,630
8540,980,630
8545,994,632
8550,1000,632
8555,1013,637
8560,1006,645
8565,1034,642
8570,1040,643
8575,1061,648
8580,1061,655
8585,1069,657
8590,1073,664
8595,1091,667
8600,1086,674
8605,1108,679
8610,1106,688
8615,1117,691
8620,1117,694
8625,1126,706
8630,1141,706
8635,1150,709
8640,1153,724
8645,1154,725
8650,1158,732
8655,1157,740
8660,1168,746
8665,1176,752
8670,1175,764
8675,1172,768
8680,1174,777
8685,1176,777
8690,1184,787
8695,1186,798
8700,1188,801
8705,1184,808
8710,1177,816
8715,1186,826
8720,1196,830
8725,1186,834
8730,1178,841
8735,1190,852
8740,1187,849
8745,1191,860
8750,1191,869
8755,1177,874
8760,1186,880
8765,1175,882
8770,1177,892
8775,1171,894
8780,1166,898
8785,1174,902
8790,1165,906
8795,1164,905
8800,1154,910
8805,1153,913
8810,1161,919
8815,1149,913
8820,1154,921
8825,1150,918
8830,1148,924
8835,1140,927
8840,1134,929
8845,1144,928
8850,1137,930
8855,1130,925
8860,1133,930
8865,1137,932
8870,1128,929
8875,1118,934
8880,1108,928
8885,1111,929
8890,1113,934
8895,1111,928
8900,1113,922
8905,1120,927
8910,1106,922
8915,1104,927
8920,1102,924
8925,1103,916
8930,1109,917
8935,1099,914
8940,1089,918
8945,1094,912
8950,1086,910
8955,1088,906
8960,1091,908
8965,1081,906
8970,1086,898
8975,1085,898
8980,1085,901
8985,1075,901
8990,1078,897
8995,1073,890
9000,1067,891
9005,1070,889
9010,1064,892
9015,1064,886
9020,1057,884
9025,1055,883
9030,1049,883
9035,1040,883
9040,1048,885
9045,1038,875
9050,1038,874
9055,1029,874
9060,1025,871
9065,1028,875
9070,1020,868
9075,1015,876
9080,1011,864
9085,1011,869
9090,1000,866
9095,997,863
9100,989,861
9105,986,860
9110,978,859
9115,977,861
9120,958,856
9125,952,860
9130,948,855
9135,957,857
9140,939,850
9145,934,856
9150,926,857
9155,917,852
9160,910,849
9165,912,839
9170,896,841
9175,879,838
9180,872,832
9185,872,836
9190,872,832
9195,860,831
9200,846,825
9205,837,824
9210,840,822
9215,818,816
9220,820,810
9225,819,815
9230,811,808
9235,804,805
9240,798,805
9245,784,799
9250,778,787
9255,785,786
9260,774,785
9265,770,785
9270,757,777
9275,769,769
9280,764,763
9285,758,764
9290,756,763
9295,751,749
9300,748,746
9305,747,745
9310,753,735
9315,749,727
9320,750,723
9325,746,721
9330,739,719
9335,749,716
9340,750,699
9345,751,699
9350,754,694
9355,761,696
9360,761,683
9365,773,681
9370,770,670
9375,777,668
9380,785,668
9385,776,662
9390,794,656
9395,809,649
9400,820,647
9405,826,645
9410,827,647
9415,832,639
9420,845,640
9425,846,633
9430,862,633
9435,865,630
9440,887,627
9445,888,631
9450,900,626
9455,905,624
9460,910,622
9465,937,625
9470,939,629
9475,950,628
9480,962,628
9485,968,633
9490,986,632
9495,986,625
9500,999,638
9505,1009,636
9510,1022,637
9515,1031,643
9520,1047,641
9525,1046,650
9530,1057,653
9535,1065,655
9540,1076,658
9545,1084,661
9550,1091,666
9555,1097,671
9560,1114,682
9565,1114,683
9570,1120,695
9575,1132,703
9580,1131,704
9585,1145,710
9590,1153,710
9595,1145,723
9600,1152,722
9605,1154,737
9610,1167,743
9615,1164,748
9620,1169,757
9625,1170,766
9630,1178,769
9635,1176,782
9640,1187,793
9645,1176,797
9650,1186,800
9655,1185,808
9660,1188,820
9665,1193,824
9670,1187,824
9675,1187,836
9680,1181,838
9685,1185,845
9690,1183,849
9695,1180,859
9700,1188,862
9705,1181,871
9710,1176,873
9715,1187,881
9720,1188,886
9725,1177,891
9730,1181,891
9735,1173,896
9740,1172,899
9745,1166,901
9750,1161,902
9755,1161,912
9760,1156,911
9765,1143,915
9770,1143,920
9775,1137,926
9780,1139,919
9785,1145,926
9790,1139,923
9795,1139,926
9800,1130,933
9805,1138,927
9810,1135,931
9815,1122,928
9820,1121,930
9825,1133,930
9830,1111,930
9835,1111,924
9840,1113,926
9845,1119,933
9850,1101,927
9855,1100,931
9860,1112,926
9865,1103,929
9870,1106,918
9875,1104,923
9880,1102,919
9885,1098,918
9890,1093,918
9895,1098,912
9900,1090,909
9905,1090,908
9910,1090,910
9915,1088,907
9920,1085,903
9925,1085,904
9930,1087,902
9935,1077,899
9940,1082,900
9945,1066,889
9950,1065,891
9955,1065,894
9960,1070,889
9965,1058,889
9970,1065,887
9975,1058,886
9980,1063,886
9985,1058,877
9990,1044,878
9995,1037,878
10000,1038,877
10005,1028,875
10010,1034,872
10015,1032,870
10020,1026,872
10025,1021,872
10030,1014,872
10035,1019,865
10040,1000,868
10045,991,866
10050,988,865
10055,983,861
10060,973,857
10065,976,860
10070,966,853
10075,962,861
10080,957,854
10085,942,859
10090,940,852
10095,935,853
10100,918,853
10105,917,845
10110,915,845
10115,907,834
10120,898,847
10125,881,834
10130,884,837
10135,874,838
10140,874,836
10145,867,830
10150,856,831
10155,843,819
10160,839,822
10165,831,825
10170,819,817
10175,816,812
10180,799,808
10185,796,803
10190,794,797
10195,786,800
10200,789,793
10205,789,796
10210,782,785
10215,775,787
10220,758,774
10225,764,771
10230,751,768
10235,764,764
10240,746,761
10245,746,750
10250,751,748
10255,757,741
10260,751,741
10265,751,735
10270,746,733
10275,753,717
10280,749,719
10285,764,716
10290,740,703
10295,754,699
10300,759,695
10305,759,690
10310,762,691
10315,767,684
10320,763,676
10325,774,671
10330,786,673
10335,790,664
10340,794,657
10345,799,659
10350,804,651
10355,808,646
10360,827,644
10365,836,641
10370,839,641
10375,850,635
10380,862,636
10385,865,633
10390,882,631
10395,885,627
10400,897,628
10405,902,622
10410,910,625
10415,931,622
10420,944,621
10425,940,624
10430,950,632
10435,969,622
10440,969,628
10445,988,627
10450,990,629
10455,998,636
10460,1014,641
10465,1031,640
10470,1026,641
10475,1050,646
10480,1058,652
10485,1062,653
10490,1075,658
10495,1085,668
10500,1080,671
10505,1096,674
10510,1111,680
10515,1114,677
10520,1110,689
10525,1120,691
10530,1129,699
10535,1138,711
10540,1147,712
10545,1155,720
10550,1157,731
10555,1167,733
10560,1158,737
10565,1172,744
10570,1162,757
10575,1178,758
10580,1173,766
10585,1177,778
10590,1191,783
10595,1185,788
10600,1178,800
10605,1184,807
10610,1186,812
10615,1201,817
10620,1187,826
10625,1187,828
10630,1183,835
10635,1190,847
10640,1188,849
10645,1195,855
10650,1187,868
10655,1183,864
10660,1182,871
10665,1185,875
10670,1186,880
10675,1169,893
10680,1174,892
10685,1171,892
10690,1171,899
10695,1166,908
10700,1163,904
10705,1154,911
10710,1155,918
10715,1157,913
10720,1152,919
10725,1149,921
10730,1150,925
10735,1141,920
10740,1137,930
10745,1141,929
10750,1138,933
10755,1141,930
10760,1133,927
10765,1130,932
10770,1137,934
10775,1121,935
10780,1116,929
10785,1118,930
10790,1118,934
10795,1119,930
10800,1105,931
10805,1109,925
10810,1104,926
10815,1114,921
10820,1103,924
10825,1107,924
10830,1097,914
10835,1098,915
10840,1087,917
10845,1089,917
10850,1089,908
10855,1089,912
10860,1086,912
10865,1091,907
10870,1092,903
10875,1081,904
10880,1086,898
10885,1073,904
10890,1079,897
10895,1068,895
10900,1081,893
10905,1068,891
10910,1066,889
10915,1067,888
10920,1063,886
10925,1063,879
10930,1049,882
10935,1057,885
10940,1048,878
10945,1050,875
10950,1045,880
10955,1035,879
10960,1029,875
10965,1022,876
10970,1028,871
10975,1021,869
10980,1022,868
10985,1019,865
10990,1007,865
10995,999,865
11000,990,865
11005,993,863
11010,980,863
11015,969,865
11020,969,856
11025,958,859
11030,964,854
11035,948,854
11040,942,853
11045,943,856
11050,928,849
11055,917,850
11060,915,848
11065,902,848
11070,894,842
11075,886,842
11080,890,844
11085,879,835
11090,862,837
11095,856,837
11100,851,827
11105,850,832
11110,841,825
11115,836,815
11120,827,819
11125,816,816
11130,816,813
11135,812,810
11140,802,805
11145,798,800
11150,781,793
11155,784,791
11160,785,786
11165,776,781
11170,764,781
11175,774,777
11180,759,762
11185,769,765
11190,756,760
11195,746,756
11200,758,752
11205,757,747
11210,743,741
11215,741,737
11220,741,734
11225,749,721
11230,754,724
11235,752,711
11240,756,706
11245,746,702
11250,757,698
11255,763,692
11260,764,690
11265,768,681
11270,781,676
11275,776,668
11280,783,670
11285,789,668
11290,789,662
11295,791,657
11300,809,653
11305,812,649
11310,818,645
11315,832,644
11320,821,638
11325,842,639
11330,850,637
11335,850,628
11340,865,634
11345,876,629
11350,890,629
11355,908,627
11360,911,625
11365,909,633
11370,931,626
11375,942,624
11380,946,624
11385,955,624
11390,970,625
11395,981,627
11400,993,633
11405,1005,631
11410,1010,634
11415,1023,638
11420,1017,639
11425,1042,646
11430,1046,647
11435,1052,652
11440,1069,657
11445,1074,655
11450,1083,665
11455,1099,670
11460,1100,671
11465,1104,678
11470,1113,689
11475,1125,696
11480,1129,699
11485,1135,704
11490,1135,711
11495,1143,716
11500,1148,728
11505,1147,734
11510,1155,744
11515,1167,741
11520,1175,755
11525,1167,760
11530,1181,769
11535,1172,767
11540,1183,776
11545,1184,791
11550,1184,798
11555,1185,804
11560,1187,801
11565,1185,816
11570,1188,817
11575,1193,825
11580,1185,833
11585,1192,842
11590,1185,852
11595,1187,853
11600,1190,860
11605,1184,863
11610,1182,871
11615,1189,874
11620,1177,873
11625,1184,886
11630,1178,892
11635,1176,898
11640,1177,893
11645,1179,901
11650,1163,903
11655,1158,912
11660,1160,911
11665,1163,913
11670,1163,921
11675,1149,919
11680,1143,919
11685,1148,925
11690,1142,922
11695,1140,924
11700,1137,931
11705,1144,929
11710,1129,929
11715,1130,927
11720,1123,930
11725,1130,929
11730,1123,935
11735,1128,929
11740,1122,926
11745,1114,929
11750,1112,923
11755,1105,920
11760,1105,927
11765,1111,927
11770,1110,921
11775,1101,922
11780,1104,928
11785,1110,917
11790,1091,923
11795,1105,915
11800,1093,915
11805,1091,914
11810,1084,909
11815,1081,907
11820,1090,906
11825,1093,906
11830,1083,906
11835,1077,901
11840,1073,894
11845,1077,898
11850,1074,897
11855,1071,888
11860,1072,892
11865,1060,893
11870,1051,886
11875,1058,888
11880,1055,890
11885,1050,887
11890,1059,882
11895,1054,875
11900,1048,880
11905,1040,875
11910,1041,872
11915,1036,874
11920,1034,869
11925,1026,871
11930,1021,866
11935,1015,870
11940,1011,871
11945,1004,860
11950,988,865
11955,991,863
11960,980,859
11965,980,859
11970,980,858
11975,965,859
11980,958,859
11985,962,856
11990,948,853
11995,938,851
12000,932,855
12005,921,851
12010,918,851
12015,917,844
12020,904,845
12025,894,845
12030,891,841
12035,885,837
12040,868,836
12045,869,831
12050,869,829
12055,847,832
12060,846,821
12065,837,822
12070,826,822
12075,824,823
12080,810,810
12085,804,811
12090,803,803
12095,806,796
12100,784,801
12105,779,799
12110,788,788
12115,780,784
12120,770,784
12125,761,778
12130,768,777
12135,760,768
12140,764,755
12145,755,758
12150,754,754
12155,753,743
12160,747,739
12165,748,737
12170,744,727
12175,747,730
12180,743,721
12185,742,714
12190,748,707
12195,767,706
12200,755,700
12205,760,694
12210,764,689
12215,766,688
12220,769,679
12225,774,676
12230,776,672
12235,782,669
12240,793,662
12245,790,663
12250,798,653
12255,807,648
12260,816,648
12265,831,644
12270,832,643
12275,838,637
12280,848,636
12285,865,640
12290,867,628
12295,873,629
12300,895,625
12305,898,626
12310,913,627
12315,914,622
12320,917,622
12325,939,622
12330,955,625
12335,951,623
12340,959,630
12345,975,625
12350,993,635
12355,992,631
12360,1007,636
12365,1014,636
12370,1027,640
12375,1047,642
12380,1050,642
12385,1047,647
12390,1071,654
12395,1070,655
12400,1075,659
12405,1095,667
12410,1101,674
12415,1100,679
12420,1116,686
12425,1120,689
12430,1129,696
12435,1122,706
12440,1135,706
12445,1138,710
12450,1153,717
12455,1156,729
12460,1156,731
12465,1164,740
12470,1168,747
12475,1173,757
12480,1175,766
12485,1174,772
12490,1175,776
12495,1185,789
12500,1185,788
12505,1185,803
12510,1187,810
12515,1187,806
12520,1186,819
12525,1189,829
12530,1182,829
12535,1187,837
12540,1182,841
12545,1182,852
12550,1175,856
12555,1191,860
12560,1182,872
12565,1181,876
12570,1180,878
12575,1175,882
12580,1175,886
12585,1170,892
12590,1167,897
12595,1169,904
12600,1164,902
12605,1166,909
12610,1167,909
12615,1161,912
12620,1157,915
12625,1152,916
12630,1145,922
12635,1153,920
12640,1134,924
12645,1138,927
12650,1131,930
12655,1130,930
12660,1136,925
12665,1124,928
12670,1136,933
12675,1115,933
12680,1120,925
12685,1126,926
12690,1128,929
12695,1112,927
12700,1114,930
12705,1118,929
12710,1110,922
12715,1105,921
12720,1108,924
12725,1096,921
12730,1100,921
12735,1101,925
12740,1095,920
12745,1092,916
12750,1103,915
12755,1088,911
12760,1095,914
12765,1083,914
12770,1085,908
12775,1076,907
12780,1088,900
12785,1081,903
12790,1083,902
12795,1078,899
12800,1080,896
12805,1074,895
12810,1070,890
12815,1075,889
12820,1068,884
12825,1068,886
12830,1054,884
12835,1056,889
12840,1061,880
12845,1047,880
12850,1045,876
12855,1043,879
12860,1042,875
12865,1038,876
12870,1031,869
12875,1031,868
12880,1012,873
12885,1017,870
12890,1012,872
12895,1002,866
12900,996,862
12905,998,866
12910,989,866
12915,979,865
12920,975,859
12925,970,856
12930,969,856
12935,957,856
12940,953,847
12945,941,857
12950,944,855
12955,934,848
12960,916,847
12965,911,850
12970,910,852
12975,899,841
12980,896,840
12985,880,838
12990,870,838
12995,863,831
13000,864,830
13005,852,826
13010,852,826
13015,832,822
13020,832,825
13025,821,818
13030,814,815
13035,813,811
13040,803,801
13045,807,801
13050,790,804
13055,785,793
13060,783,790
13065,778,792
13070,776,787
13075,766,783
13080,766,770
13085,771,770
13090,757,770
13095,767,762
13100,751,755
13105,757,744
13110,754,744
13115,744,742
13120,751,735
13125,756,725
13130,747,724
13135,749,722
13140,760,711
13145,750,710
13150,744,705
13155,758,694
13160,753,688
13165,767,684
13170,765,682
13175,777,675
13180,775,675
13185,776,667
13190,794,664
13195,794,661
13200,797,657
13205,798,652
13210,810,649
13215,817,643
13220,831,646
13225,833,641
13230,844,636
13235,851,634
13240,865,632
13245,864,628
13250,881,623
13255,894,631
13260,907,625
13265,911,627
13270,924,629
13275,928,621
13280,939,629
13285,951,625
13290,964,623
13295,975,629
13300,984,628
13305,990,631
13310,1004,631
13315,1011,635
13320,1021,636
13325,1033,639
13330,1040,640
13335,1053,647
13340,1062,656
13345,1067,656
13350,1072,660
13355,1083,663
13360,1096,669
13365,1100,676
13370,1108,682
13375,1108,684
13380,1131,696
13385,1134,692
13390,1130,701
13395,1144,708
13400,1145,721
13405,1155,726
13410,1158,730
13415,1166,738
13420,1173,745
13425,1171,753
13430,1173,761
13435,1182,762
13440,1186,771
13445,1176,779
13450,1182,787
13455,1190,795
13460,1181,803
13465,1183,814
13470,1182,813
13475,1186,827
13480,1182,827
13485,1180,833
13490,1178,843
13495,1191,846
13500,1181,851
13505,1179,858
13510,1181,862
13515,1178,868
13520,1180,874
13525,1179,880
13530,1179,885
13535,1174,887
13540,1175,895
13545,1173,901
13550,1177,898
13555,1158,907
13560,1170,908
13565,1161,910
13570,1157,910
13575,1154,918
13580,1159,921
13585,1145,923
13590,1158,926
13595,1146,925
13600,1133,921
13605,1144,927
13610,1128,931
13615,1127,931
13620,1128,936
13625,1129,934
13630,1114,927
13635,1116,929
13640,1128,927
13645,1114,931
13650,1113,928
13655,1106,927
13660,1112,924
13665,1107,927
13670,1106,922
13675,1101,925
13680,1100,920
13685,1103,922
13690,1096,923
13695,1103,919
13700,1102,919
13705,1091,914
13710,1098,917
13715,1093,910
13720,1088,904
13725,1082,909
13730,1075,903
13735,1080,904
13740,1087,900
13745,1077,896
13750,1079,894
13755,1071,893
13760,1075,892
13765,1062,896
13770,1075,889
13775,1068,891
13780,1059,881
13785,1065,887
13790,1057,879
13795,1051,880
13800,1049,880
13805,1045,878
13810,1042,876
13815,1033,874
13820,1025,876
13825,1036,875
13830,1015,868
13835,1014,871
13840,1019,868
13845,1010,871
13850,1008,863
13855,996,871
13860,1000,863
13865,987,862
13870,984,863
13875,972,860
13880,970,857
13885,961,854
13890,959,857
13895,943,853
13900,928,851
13905,929,853
13910,927,850
13915,912,847
13920,919,844
13925,895,845
13930,897,842
13935,887,841
13940,873,842
13945,867,833
13950,858,835
13955,850,831
13960,849,828
13965,840,824
13970,832,818
13975,831,818
13980,818,815
13985,813,805
13990,811,814
13995,806,804
14000,803,800
14005,797,796
14010,781,794
14015,782,790
14020,778,786
14025,770,777
14030,769,784
14035,766,769
14040,757,770
14045,746,768
14050,766,758
14055,760,746
14060,747,745
14065,759,740
14070,749,732
14075,746,733
14080,742,728
14085,744,719
14090,762,718
14095,747,711
14100,748,705
14105,761,701
14110,755,698
14115,770,691
14120,761,684
14125,768,679
14130,768,672
14135,782,672
14140,795,669
14145,797,665
14150,799,663
14155,804,660
14160,816,649
14165,818,651
14170,820,643
14175,835,643
14180,843,641
14185,851,636
14190,858,632
14195,867,633
14200,880,625
14205,890,626
14210,898,633
14215,908,624
14220,925,631
14225,932,628
14230,936,628
14235,943,629
14240,965,620
14245,969,629
14250,980,624
14255,986,627
14260,999,634
14265,1009,634
14270,1016,642
14275,1026,631
14280,1036,645
14285,1049,645
14290,1053,653
14295,1060,652
14300,1076,655
14305,1085,665
14310,1095,668
14315,1098,672
14320,1107,678
14325,1105,688
14330,1123,688
14335,1125,696
14340,1129,701
14345,1133,707
14350,1149,721
14355,1152,720
14360,1147,726
14365,1162,739
14370,1165,737
14375,1164,745
14380,1182,755
14385,1190,762
14390,1172,772
14395,1178,775
14400,1191,785
14405,1184,794
14410,1177,801
14415,1179,802
14420,1185,812
14425,1193,823
14430,1176,824
14435,1189,832
14440,1187,839
14445,1185,844
14450,1185,849
14455,1177,856
14460,1190,857
14465,1190,872
14470,1191,872
14475,1182,876
14480,1182,882
14485,1177,889
14490,1166,886
14495,1175,897
14500,1168,903
14505,1167,900
14510,1166,913
14515,1168,913
14520,1152,914
14525,1155,910
14530,1152,916
14535,1148,921
14540,1139,923
14545,1144,921
14550,1144,926
14555,1134,927
14560,1144,927
14565,1123,928
14570,1127,928
14575,1129,930
14580,1123,928
14585,1127,927
14590,1119,929
14595,1114,931
14600,1116,930
14605,1113,928
14610,1105,923
14615,1116,926
14620,1111,924
14625,1095,927
14630,1110,926
14635,1103,919
14640,1100,921
14645,1091,921
14650,1096,917
14655,1095,910
14660,1083,911
14665,1089,912
14670,1091,914
14675,1088,905
14680,1084,900
14685,1086,896
14690,1087,897
14695,1079,896
14700,1075,898
14705,1071,893
14710,1067,898
14715,1076,891
14720,1065,888
14725,1059,888
14730,1067,883
14735,1062,884
14740,1051,879
14745,1050,885
14750,1047,879
14755,1050,883
14760,1042,883
14765,1045,873
14770,1032,877
14775,1035,872
14780,1021,869
14785,1024,863
14790,1015,872
14795,1004,870
14800,1005,867
14805,1002,863
14810,983,859
14815,988,857
14820,982,863
14825,973,859
14830,959,863
14835,963,860
14840,959,860
14845,948,855
14850,942,855
14855,939,853
14860,932,850
14865,914,852
14870,919,847
14875,902,840
14880,897,842
14885,884,841
14890,880,844
14895,870,833
14900,867,832
14905,858,829
14910,854,830
14915,846,826
14920,832,824
14925,841,821
14930,819,820
14935,817,811
14940,807,813
14945,799,809
14950,799,805
14955,798,803
14960,793,797
14965,785,797
14970,781,795
14975,765,784
14980,766,779
14985,755,774
14990,763,769
14995,752,763
15000,763,758
15005,741,755
15010,747,750
15015,754,746
15020,748,743
15025,756,740
15030,757,725
15035,741,725
15040,748,717
15045,749,710
15050,754,709
15055,754,707
15060,760,700
15065,760,685
15070,763,692
15075,768,686
15080,771,676
15085,778,668
15090,777,663
15095,779,667
15100,788,662
15105,802,658
15110,806,651
15115,809,654
15120,823,641
15125,833,641
15130,834,640
15135,849,637
15140,845,627
15145,856,630
15150,867,628
15155,876,627
15160,892,630
15165,901,628
15170,917,624
15175,921,624
15180,927,624
15185,941,632
15190,951,628
15195,960,628
15200,975,627
15205,986,626
15210,991,632
15215,1004,629
15220,1019,636
15225,1024,640
15230,1030,642
15235,1038,641
15240,1052,651
15245,1062,651
15250,1069,660
15255,1074,662
15260,1089,672
15265,1088,672
15270,1101,676
15275,1115,680
15280,1111,688
15285,1114,693
15290,1132,696
15295,1133,704
15300,1141,716
15305,1150,720
15310,1147,726
15315,1157,731
15320,1166,738
15325,1162,749
15330,1176,754
15335,1170,761
15340,1173,768
15345,1176,775
15350,1177,779
15355,1182,790
15360,1189,800
15365,1193,803
15370,1178,805
15375,1182,819
15380,1187,822
15385,1185,826
15390,1187,835
15395,1182,844
15400,1181,846
15405,1181,859
15410,1187,861
15415,1181,862
15420,1183,875
15425,1175,874
15430,1175,880
15435,1168,887
15440,1172,889
15445,1172,889
15450,1165,900
15455,1166,901
15460,1166,908
15465,1159,908
15470,1160,911
15475,1159,917
15480,1155,922
15485,1155,919
15490,1143,929
15495,1141,927
15500,1137,928
15505,1134,926
15510,1141,930
15515,1134,936
15520,1138,923
15525,1127,927
15530,1125,935
15535,1128,928
15540,1118,932
15545,1121,929
15550,1114,932
15555,1116,926
15560,1114,925
15565,1109,930
15570,1106,930
15575,1104,924
15580,1113,926
15585,1101,925
15590,1097,920
15595,1105,915
15600,1101,922
15605,1094,915
15610,1096,915
15615,1098,905
15620,1089,912
15625,1098,913
15630,1090,904
15635,1085,898
15640,1072,901
15645,1082,900
15650,1076,904
15655,1076,900
15660,1072,895
15665,1072,892
15670,1076,891
15675,1059,885
15680,1063,888
15685,1059,889
15690,1054,880
15695,1058,885
15700,1054,879
15705,1047,882
15710,1040,879
15715,1053,878
15720,1043,877
15725,1026,873
15730,1026,874
15735,1017,871
15740,1022,868
15745,1009,865
15750,1000,867
15755,1000,866
15760,994,870
15765,987,861
15770,984,863
15775,976,867
15780,969,855
15785,967,856
15790,957,858
15795,947,855
15800,939,858
15805,936,848
15810,931,844
15815,930,850
15820,908,850
15825,905,847
15830,892,839
15835,888,842
15840,888,846
15845,879,837
15850,868,831
15855,873,832
15860,860,827
15865,847,828
15870,832,825
15875,832,822
15880,827,820
15885,820,823
15890,818,810
15895,801,806
15900,797,802
15905,802,795
15910,792,795
15915,785,799
15920,772,786
15925,774,790
15930,771,785
15935,768,774
15940,760,775
15945,751,771
15950,756,761
15955,746,757
15960,745,751
15965,752,746
15970,754,741
15975,745,733
15980,748,729
15985,744,722
15990,748,718
15995,745,719
16000,749,706
16004,751,703
16010,758,706
16015,755,698
16020,757,687
16024,770,680
16030,764,679
16035,776,674
16040,770,665
16045,786,663
16050,792,666
16055,801,658
16059,806,649
16065,812,651
16070,819,647
16075,821,642
16079,834,643
16085,842,638
16090,855,630
16094,865,637
16100,869,634
16105,882,630
16110,891,625
16114,896,625
16120,901,622
16125,925,626
16129,937,630
16135,936,622
16140,955,625
16145,954,628
16149,969,628
16155,983,626
16160,997,634
16165,1005,633
16170,1005,635
16175,1019,639
16180,1028,643
16184,1042,645
16190,1046,645
16195,1048,654
16200,1060,654
16204,1064,662
16210,1086,661
16215,1097,669
16219,1101,674
16225,1112,681
16230,1120,684
16235,1123,693
16239,1128,699
16245,1139,703
16250,1140,710
16254,1137,715
16260,1150,721
16265,1159,731
16270,1164,737
16274,1169,744
16280,1169,747
16285,1172,752
16290,1179,766
16295,1174,770
16300,1184,780
16305,1182,784
16309,1177,793
16315,1180,797
16320,1187,804
16325,1183,811
16329,1187,818
16335,1190,820
16340,1187,833
16344,1182,835
16350,1186,843
16355,1189,849
16360,1184,859
16364,1183,862
16370,1187,869
16375,1179,876
16379,1185,878
16385,1181,879
16390,1180,889
16395,1169,894
16400,1161,897
16405,1165,899
16410,1180,907
16415,1173,908
16420,1153,912
16425,1157,911
16430,1155,920
16435,1147,929
16440,1159,920
16445,1147,927
16450,1146,922
16455,1142,927
16460,1141,926
16465,1136,926
16470,1135,930
16475,1132,932
16480,1131,928
16485,1123,929
16490,1126,926
16495,1123,927
16500,1112,924
16505,1114,927
16510,1120,926
16515,1113,925
16520,1118,928
16525,1100,921
16530,1101,925
16535,1109,926
16540,1094,922
16545,1098,917
16550,1097,918
16555,1087,917
16560,1095,913
16565,1082,916
16570,1086,911
16575,1083,903
16580,1087,908
16585,1080,903
16590,1087,904
16595,1076,904
16600,1079,900
16605,1080,890
16610,1068,900
16615,1069,892
16620,1074,894
16625,1055,893
16630,1059,888
16635,1058,885
16640,1062,884
16645,1055,888
16650,1060,875
16655,1053,875
16660,1048,875
16665,1048,878
16670,1034,882
16675,1038,882
16680,1038,871
16685,1019,873
16690,1021,867
16695,1006,868
16700,1011,871
16705,1002,863
16710,994,867
16715,993,865
16720,986,867
16725,983,865
16730,983,866
16735,977,855
16740,963,857
16745,965,856
16750,958,858
16755,949,856
16760,939,850
16765,926,853
16770,926,845
16775,909,849
16780,908,847
16785,900,843
16790,888,842
16795,879,839
16800,876,835
16805,866,833
16810,862,828
16815,845,823
16820,838,823
16825,837,820
16830,836,819
16835,827,818
16840,814,812
16845,817,810
16850,809,805
16855,796,799
16860,793,798
16865,789,793
16870,787,793
16875,768,788
16880,764,781
16885,766,774
16890,773,771
16895,758,772
16900,756,762
16905,752,758
16910,754,754
16915,742,743
16920,754,743
16925,751,736
16930,742,732
16935,748,728
16940,749,720
16945,747,715
16950,756,713
16955,749,707
16960,751,701
16965,763,692
16970,763,691
16975,771,686
16980,769,674
16985,767,679
16990,770,672
16995,779,666
17000,783,667
17005,798,659
17010,798,661
17015,802,648
17020,809,647
17025,821,646
17030,832,641
17035,842,638
17040,845,638
17045,854,635
17050,859,630
17055,873,631
17060,896,629
17065,890,627
17070,911,625
17075,908,622
17080,922,630
17085,935,624
17090,955,621
17095,946,619
17100,964,628
17105,970,624
17110,979,627
17115,997,632
17120,1005,631
17125,1017,634
17130,1023,643
17135,1033,639
17140,1046,651
17145,1052,649
17150,1060,652
17155,1064,655
17160,1084,664
17165,1085,671
17170,1098,676
17175,1107,677
17180,1120,681
17185,1112,687
17190,1121,694
17195,1117,703
17200,1129,705
17205,1149,709
17210,1142,723
17215,1150,724
17220,1161,729
17225,1153,734
17230,1164,751
17235,1168,753
17240,1165,760
17245,1179,770
17250,1181,770
17255,1167,784
17260,1187,788
17265,1184,796
17270,1188,801
17275,1179,809
17280,1185,814
17285,1193,822
17290,1195,832
17295,1184,836
17300,1185,845
17305,1187,848
17310,1180,852
17315,1188,863
17320,1171,868
17325,1187,872
17330,1183,883
17335,1173,879
17340,1174,886
17345,1172,892
17350,1170,893
17355,1170,899
17360,1173,903
17365,1164,911
17370,1166,909
17375,1165,910
17380,1158,917
17385,1161,916
17390,1155,921
17395,1151,926
17400,1145,925
17405,1147,927
17410,1129,930
17415,1136,926
17420,1129,929
17425,1121,931
17430,1123,931
17435,1131,928
17440,1125,930
17445,1119,931
17450,1113,932
17455,1112,934
17460,1113,925
17465,1114,924
17470,1106,929
17475,1109,931
17480,1109,920
17485,1110,918
17490,1096,923
17495,1095,924
17500,1092,921
17505,1093,918
17510,1096,917
17515,1085,918
17520,1090,914
17525,1086,908
17530,1089,909
17535,1082,906
17540,1081,903
17545,1078,904
17550,1083,900
17555,1070,893
17560,1073,896
17565,1070,900
17570,1073,888
17575,1067,891
17580,1077,886
17585,1067,883
17590,1054,890
17595,1057,890
17600,1055,878
17605,1045,885
17610,1045,885
17615,1043,877
17620,1035,871
17625,1043,876
17630,1042,879
17635,1024,868
17640,1028,866
17645,1017,866
17650,1015,871
17655,1003,868
17660,1000,863
17665,1003,862
17670,987,861
17675,974,863
17680,981,863
17685,969,858
17690,965,862
17695,967,853
17700,944,854
17705,943,850
17710,933,853
17715,930,852
17720,924,854
17725,915,850
17730,917,842
17735,902,838
17740,897,840
17745,890,846
17750,876,839
17755,866,833
17760,859,833
17765,853,831
17770,848,823
17775,842,825
17780,839,819
17785,815,820
17790,827,817
17795,819,807
17800,803,805
17805,803,807
17810,807,799
17815,786,796
17820,780,791
17825,768,790
17830,773,787
17835,770,781
17840,766,778
17845,762,771
17850,757,765
17855,753,760
17860,761,758
17865,756,754
17870,756,745
17875,743,745
17880,747,736
17885,752,730
17890,738,727
17895,747,723
17900,759,720
17905,746,711
17910,747,702
17915,749,698
17920,760,699
17925,768,690
17930,769,686
17935,767,680
17940,777,676
17945,777,669
17950,784,665
17955,787,657
17960,794,654
17965,810,654
17970,809,650
17975,818,645
17980,815,643
17985,834,636
17990,844,639
17995,856,635
18000,857,628
18005,865,633
18010,882,622
18015,885,630
18020,898,624
18025,902,626
18030,918,630
18035,926,624
18040,936,623
18045,940,627
18050,958,632
18055,968,627
18060,985,634
18065,990,627
18070,999,632
18075,1014,635
18080,1024,637
18085,1021,640
18090,1042,651
18095,1038,648
18100,1061,653
18105,1061,656
18110,1082,657
18115,1087,662
18120,1097,664
18125,1102,677
18130,1112,678
18135,1107,685
18140,1116,694
18145,1125,696
18150,1140,705
18155,1141,708
18160,1149,716
18165,1145,726
18170,1148,728
18175,1155,735
18180,1156,746
18185,1168,750
18190,1180,760
18195,1174,764
18200,1179,781
18205,1178,785
18210,1185,791
18215,1185,797
18220,1181,800
18225,1179,808
18230,1189,816
18235,1194,822
18240,1191,829
18245,1193,831
18250,1189,840
18255,1185,846
18260,1175,850
18265,1185,856
18270,1181,867
18275,1190,867
18280,1172,870
18285,1171,879
18290,1180,883
18295,1178,887
18300,1166,892
18305,1166,891
18310,1165,900
18315,1163,909
18320,1157,903
18325,1154,916
18330,1148,915
18335,1147,918
18340,1156,916
18345,1143,924
18350,1147,927
18355,1144,926
18360,1138,927
18365,1138,922
18370,1138,931
18375,1128,933
18380,1129,932
18385,1123,934
18390,1129,931
18395,1112,932
18400,1113,931
18405,1124,927
18410,1122,924
18415,1118,933
18420,1116,927
18425,1117,932
18430,1109,926
18435,1107,924
18440,1097,923
18445,1102,923
18450,1101,921
18455,1111,918
18460,1096,917
18465,1092,918
18470,1091,915
18475,1090,917
18480,1087,906
18485,1084,902
18490,1091,900
18495,1083,898
18500,1075,900
18505,1074,902
18510,1078,899
18515,1074,900
18520,1074,893
18525,1070,897
18530,1067,889
18535,1067,884
18540,1060,880
18545,1060,877
18550,1054,884
18555,1056,879
18560,1044,880
18565,1048,879
18570,1037,871
18575,1030,875
18580,1047,872
18585,1028,872
18590,1030,873
18595,1013,870
18600,1010,871
18605,1007,866
18610,995,873
18615,999,865
18620,993,869
18625,985,858
18630,986,859
18635,967,860
18640,974,855
18645,960,856
18650,960,856
18655,948,855
18660,939,853
18665,930,847
18670,923,853
18675,924,844
18680,904,849
18685,903,848
18690,903,839
18695,890,840
18700,884,839
18705,870,838
18710,868,841
18715,858,829
18720,852,831
18725,841,828
18730,842,821
18735,841,819
18740,825,815
18745,822,812
18750,809,811
18755,801,808
18760,808,801
18765,788,794
18770,783,795
18775,774,788
18780,776,788
18785,777,781
18790,763,776
18795,762,773
18800,762,765
18805,757,762
18810,753,760
18815,750,750
18820,747,751
18825,755,746
18830,733,739
18835,754,735
18840,751,731
18845,743,722
18850,751,715
18855,746,711
18860,751,706
18865,752,704
18870,748,695
18875,759,691
18880,767,687
18885,764,677
18890,770,674
18895,781,673
18900,784,665
18905,786,662
18910,792,660
18915,800,655
18920,804,651
18925,820,648
18930,824,644
18935,831,644
18940,840,638
18945,841,633
18950,863,632
18955,877,629
18960,873,628
18965,885,631
18970,887,629
18975,897,631
18980,908,630
18985,920,628
18990,928,623
18995,941,626
19000,955,624
19005,965,622
19010,979,628
19015,987,624
19020,999,630
19025,1007,640
19030,1012,636
19035,1028,644
19040,1027,639
19045,1044,644
19050,1060,646
19055,1068,657
19060,1064,658
19065,1074,663
19070,1096,666
19075,1086,670
19080,1100,682
19085,1110,683
19090,1122,691
19095,1127,693
19100,1127,695
19105,1134,702
19110,1141,714
19115,1153,719
19120,1163,728
19125,1159,738
19130,1166,740
19135,1164,745
19140,1164,755
19145,1168,765
19150,1177,771
19155,1169,774
19160,1181,786
19165,1184,792
19170,1184,794
19175,1190,805
19180,1177,810
19185,1188,820
19190,1196,826
19195,1187,829
19200,1189,839
19205,1183,843
19210,1181,847
19215,1193,853
19220,1178,865
19225,1187,863
19230,1184,874
19235,1181,878
19240,1178,878
19245,1182,882
19250,1175,895
19255,1172,898
19260,1168,899
19265,1167,900
19270,1164,907
19275,1164,910
19280,1154,913
19285,1153,916
19290,1159,914
19295,1145,916
19300,1156,926
19305,1143,925
19310,1141,925
19315,1138,933
19320,1135,928
19325,1130,926
19330,1129,927
19335,1123,931
19340,1125,927
19345,1116,930
19350,1120,930
19355,1108,929
19360,1122,924
19365,1110,930
19370,1106,925
19375,1108,923
19380,1108,928
19385,1105,925
19390,1099,925
19395,1103,925
19400,1097,921
19405,1096,913
19410,1096,918
19415,1100,912
19420,1088,914
19425,1089,903
19430,1083,910
19435,1095,907
19440,1085,906
19445,1081,898
19450,1083,901
19455,1074,900
19460,1067,900
19465,1076,895
19470,1065,894
19475,1075,888
19480,1076,884
19485,1070,884
19490,1070,887
19495,1064,886
19500,1062,884
19505,1058,882
19510,1049,881
19515,1051,877
19520,1041,875
19525,1034,877
19530,1042,872
19535,1028,872
19540,1026,876
19545,1024,867
19550,1010,868
19555,1008,872
19560,1006,867
19565,997,870
19570,993,863
19575,982,865
19580,985,860
19585,972,860
19590,965,857
19595,966,858
19600,950,857
19605,944,854
19610,941,851
19615,937,846
19620,941,845
19625,926,849
19630,907,847
19635,913,843
19640,902,843
19645,895,842
19650,882,836
19655,868,842
19660,871,834
19665,864,828
19670,846,833
19675,842,828
19680,837,825
19685,832,819
19690,829,814
19695,826,818
19700,803,813
19705,801,817
19710,796,799
19715,790,804
19720,803,796
19725,786,790
19730,778,791
19735,780,781
19740,774,774
19745,765,772
19750,767,771
19755,765,763
19760,754,759
19765,746,755
19770,749,752
19775,752,742
19780,748,737
19785,745,736
19790,747,724
19795,749,729
19800,745,725
19805,748,707
19810,750,707
19815,751,711
19820,756,702
19825,759,696
19830,772,690
19835,762,683
19840,770,680
19845,782,674
19850,781,676
19855,788,668
19860,786,657
19865,805,655
19870,797,653
19875,818,648
19880,820,647
19885,836,644
19890,828,641
19895,838,633
19900,848,641
19905,865,630
19910,876,632
19915,879,624
19920,886,629
19925,900,623
19930,918,628
19935,924,631
19940,934,626
19945,945,620
19950,950,626
19955,963,633
19960,969,621
19965,978,630
19970,992,630
19975,1009,633
19980,1023,638
19985,1021,636
19990,1029,650
19995,1041,641
20000,1043,645
20005,1052,653
20010,1060,662
20015,1075,662
20020,1072,669
20025,1092,669
20030,1097,673
20035,1108,681
20040,1113,684
20045,1120,687
20050,1123,695
20055,1132,711
20060,1144,711
20065,1137,717
20070,1156,725
20075,1157,733
20080,1151,740
20085,1163,745
20090,1158,754
20095,1177,757
20100,1170,765
20105,1182,770
20110,1177,778
20115,1182,790
20120,1186,795
20125,1192,799
20130,1190,807
20135,1177,815
20140,1189,820
20145,1188,827
20150,1180,832
20155,1182,841
20160,1182,847
20165,1193,854
20170,1180,854
20175,1176,856
20180,1187,868
20185,1175,870
20190,1184,878
20195,1174,883
20200,1176,890
20205,1169,890
20210,1169,900
20215,1172,903
20220,1162,906
20225,1162,903
20230,1153,915
20235,1163,918
20240,1151,918
20245,1144,922
20250,1143,923
20255,1146,927
20260,1139,928
20265,1141,925
20270,1138,928
20275,1147,930
20280,1135,932
20285,1124,932
20290,1126,936
20295,1114,929
20300,1116,928
20305,1121,928
20310,1115,925
20315,1118,935
20320,1110,929
20325,1106,923
20330,1105,928
20335,1111,925
20340,1105,928
20345,1110,925
20350,1095,922
20355,1101,918
20360,1101,918
20365,1092,916
20370,1096,918
20375,1079,910
20380,1092,909
20385,1087,907
20390,1082,908
20395,1084,906
20400,1079,906
20405,1078,902
20410,1076,896
20415,1083,900
20420,1074,892
20425,1072,888
20430,1078,886
20435,1068,888
20440,1057,882
20445,1068,888
20450,1050,878
20455,1060,884
20460,1051,880
20465,1052,877
20470,1053,874
20475,1038,873
20480,1032,879
20485,1034,871
20490,1028,875
20495,1025,874
20500,1019,867
20505,1014,872
20510,1009,865
20515,1001,861
20520,990,868
20525,1001,865
20530,980,864
20535,971,864
20540,978,863
20545,973,858
20550,961,860
20555,948,857
20560,941,847
20565,929,855
20570,929,849
20575,930,851
20580,916,847
20585,910,845
20590,900,845
20595,898,838
20600,892,837
20605,872,839
20610,872,838
20615,867,825
20620,851,833
20625,842,824
20630,829,831
20635,833,827
20640,827,824
20645,817,817
20650,816,814
20655,810,807
20660,805,805
20665,797,800
20670,788,791
20675,780,792
20680,775,792
20685,773,789
20690,768,780
20695,767,782
20700,762,775
20705,764,768
20710,750,760
20715,741,759
20720,754,747
20725,756,750
20730,753,743
20735,749,740
20740,744,731
20745,748,728
20750,751,719
20755,748,718
20760,758,716
20765,752,706
20770,757,700
20775,761,692
20780,761,691
20785,771,680
20790,775,680
20795,778,674
20800,779,669
20805,778,664
20810,793,663
20815,798,655
20820,804,657
20825,801,650
20830,826,645
20835,817,644
20840,832,643
20845,832,641
20850,848,630
20855,852,631
20860,867,632
20865,874,627
20870,888,624
20875,895,624
20880,907,622
20885,929,625
20890,922,619
20895,944,623
20900,942,627
20905,955,628
20910,972,622
20915,978,632
20920,998,629
20925,989,631
20930,1006,630
20935,1012,638
20940,1033,637
20945,1038,641
20950,1045,644
20955,1050,649
20960,1063,654
20965,1080,657
20970,1077,663
20975,1091,670
20980,1097,666
20985,1101,677
20990,1115,687
20995,1115,692
21000,1118,699
21005,1132,702
21010,1139,707
21015,1139,712
21020,1155,721
21025,1152,734
21030,1147,738
21035,1162,740
21040,1167,745
21045,1178,754
21050,1174,762
21055,1176,771
21060,1171,778
21065,1172,783
21070,1184,789
21075,1191,794
21080,1198,805
21085,1179,806
21090,1188,825
21095,1191,828
21100,1177,833
21105,1190,835
21110,1184,841
21115,1177,852
21120,1195,857
21125,1187,861
21130,1186,864
21135,1173,874
21140,1177,878
21145,1177,882
21150,1169,889
21155,1175,890
21160,1172,896
21165,1172,900
21170,1170,902
21175,1167,910
21180,1159,907
21185,1154,911
21190,1154,918
21195,1148,917
21200,1153,929
21205,1137,926
21210,1147,927
21215,1140,925
21220,1132,928
21225,1130,928
21230,1142,929
21235,1129,927
21240,1114,927
21245,1121,932
21250,1124,929
21255,1116,927
21260,1119,927
21265,1129,926
21270,1113,926
21275,1103,928
21280,1111,929
21285,1113,925
21290,1110,923
21295,1100,921
21300,1103,919
21305,1106,917
21310,1101,918
21315,1098,917
21320,1083,912
21325,1091,907
21330,1090,910
21335,1095,909
21340,1080,908
21345,1090,904
21350,1068,904
21355,1080,898
21360,1084,903
21365,1078,899
21370,1076,896
21375,1070,896
21380,1065,893
21385,1065,888
21390,1069,885
21395,1066,885
21400,1058,882
21405,1064,881
21410,1062,879
21415,1046,885
21420,1044,874
21425,1043,871
21430,1041,875
21435,1033,869
21440,1043,870
21445,1016,871
21450,1024,872
21455,1021,874
21460,1004,867
21465,1004,868
21470,1000,869
21475,999,867
21480,985,862
21485,981,861
21490,981,858
21495,974,861
21500,960,859
21505,958,854
21510,946,856
21515,950,855
21520,942,849
21525,936,848
21530,924,841
21535,911,847
21540,911,848
21545,906,842
21550,891,842
21555,875,842
21560,877,836
21565,866,833
21570,865,832
21575,846,828
21580,849,825
21585,839,823
21590,831,826
21595,826,816
21600,810,815
21605,813,811
21610,808,805
21615,797,800
21620,793,795
21625,787,799
21630,778,788
21635,774,791
21640,775,782
21645,780,783
21650,769,772
21655,762,774
21660,755,767
21665,754,759
21670,749,755
21675,757,743
21680,752,743
21685,748,735
21690,746,730
21695,754,728
21700,750,725
21705,744,719
21710,757,720
21715,751,707
21720,743,704
21725,768,697
21730,762,690
21735,769,687
21740,761,680
21745,766,677
21750,766,677
21755,786,669
21760,786,663
21765,788,666
21770,802,659
21775,806,657
21780,827,645
21785,817,645
21790,831,650
21795,835,638
21800,839,634
21805,858,638
21810,863,631
21815,869,627
21820,881,631
21825,897,632
21830,889,624
21835,910,623
21840,921,625
21845,924,623
21850,934,622
21855,951,625
21860,964,626
21865,973,627
21870,987,629
21875,995,628
21880,995,629
21885,1006,637
21890,1008,640
21895,1027,642
21900,1046,644
21905,1048,652
21910,1057,654
21915,1066,657
21920,1079,659
21925,1092,662
21930,1091,668
21935,1100,673
21940,1109,678
21945,1124,689
21950,1115,691
21955,1136,697
21960,1140,705
21965,1144,707
21970,1146,719
21975,1153,723
21980,1158,736
21985,1163,736
21990,1167,743
21995,1181,755
22000,1168,755
22005,1172,765
22010,1180,772
22015,1181,779
22020,1183,784
22025,1183,795
22030,1201,806
22035,1190,806
22040,1195,812
22045,1184,821
22050,1186,834
22055,1190,836
22060,1195,843
22065,1197,844
22070,1182,850
22075,1188,862
22080,1194,860
22085,1190,874
22090,1182,872
22095,1166,878
22100,1177,887
22105,1174,889
22110,1170,898
22115,1170,897
22120,1154,898
22125,1164,911
22130,1157,902
22135,1151,907
22140,1147,913
22145,1163,915
22150,1144,923
22155,1142,922
22160,1149,924
22165,1141,925
22170,1136,921
22175,1140,929
22180,1129,926
22185,1126,928
22190,1126,930
22195,1118,935
22200,1115,932
22205,1115,930
22210,1128,926
22215,1121,926
22220,1119,924
22225,1111,925
22230,1111,925
22235,1118,928
22240,1104,923
22245,1101,924
22250,1099,927
22255,1103,919
22260,1095,913
22265,1096,920
22270,1093,914
22275,1090,911
22280,1096,910
22285,1082,916
22290,1099,913
22295,1084,904
22300,1076,906
22305,1076,905
22310,1080,899
22315,1084,898
22320,1070,897
22325,1078,894
22330,1070,897
22335,1072,889
22340,1061,889
22345,1063,893
22350,1064,885
22355,1059,880
22360,1060,879
22365,1047,882
22370,1052,879
22375,1059,883
22380,1049,877
22385,1031,880
22390,1025,875
22395,1026,875
22400,1023,873
22405,1028,873
22410,1015,866
22415,1008,861
22420,992,865
22425,996,865
22430,1000,863
22435,991,864
22440,982,865
22445,976,861
22450,960,859
22455,962,859
22460,953,857
22465,944,854
22470,938,857
22475,928,847
22480,921,849
22485,911,848
22490,914,845
22495,905,844
22500,900,846
22505,884,841
22510,880,838
22515,871,841
22520,866,831
22525,858,831
22530,860,827
22535,849,829
22540,832,827
22545,826,819
22550,825,817
22555,817,814
22560,801,808
22565,799,805
22570,796,797
22575,790,794
22580,782,792
22585,783,789
22590,776,786
22595,769,782
22600,765,776
22605,757,768
22610,761,771
22615,752,763
22620,756,758
22625,758,754
22630,750,747
22635,756,747
22640,749,737
22645,744,728
22650,750,727
22655,749,721
22660,753,714
22665,761,703
22670,758,702
22675,752,694
22680,754,695
22685,759,691
22690,766,685
22695,764,679
22700,773,671
22705,786,669
22710,785,669
22715,791,658
22720,792,655
22725,805,651
22730,803,654
22735,812,650
22740,833,647
22745,827,645
22750,840,641
22755,849,634
22760,856,630
22765,868,627
22770,872,628
22775,886,627
22780,889,624
22785,914,617
22790,921,623
22795,926,623
22800,938,628
22805,945,629
22810,956,625
22815,969,626
22820,974,629
22825,989,627
22830,998,641
22835,1007,631
22840,1019,634
22845,1028,638
22850,1033,643
22855,1046,646
22860,1051,650
22865,1061,657
22870,1069,660
22875,1084,663
22880,1088,666
22885,1100,669
22890,1107,680
22895,1112,687
22900,1126,694
22905,1126,700
22910,1126,700
22915,1137,708
22920,1153,716
22925,1140,723
22930,1145,731
22935,1149,738
22940,1167,746
22945,1172,744
22950,1165,753
22955,1182,763
22960,1173,775
22965,1180,773
22970,1181,783
22975,1179,794
22980,1183,805
22985,1182,811
22990,1182,812
22995,1178,818
23000,1191,824
23005,1178,835
23010,1188,838
23015,1184,841
23020,1174,853
23025,1192,855
23030,1183,861
23035,1178,868
23040,1181,875
23045,1181,881
23050,1175,879
23055,1182,886
23060,1179,895
23065,1174,895
23070,1171,902
23075,1166,899
23080,1161,909
23085,1149,909
23090,1150,917
23095,1154,924
23100,1143,920
23105,1145,924
23110,1141,923
23115,1143,922
23120,1138,923
23125,1144,928
23130,1142,919
23135,1129,933
23140,1124,929
23145,1125,933
23150,1128,929
23155,1119,929
23160,1120,927
23165,1119,932
23170,1108,927
23175,1119,925
23180,1111,930
23185,1106,932
23190,1119,925
23195,1094,918
23200,1106,922
23205,1096,926
23210,1106,918
23215,1094,915
23220,1095,916
23225,1082,918
23230,1090,914
23235,1093,916
23240,1092,909
23245,1090,905
23250,1077,908
23255,1084,898
23260,1074,897
23265,1068,898
23270,1067,895
23275,1075,892
23280,1075,892
23285,1070,887
23290,1079,889
23295,1060,884
23300,1064,883
23305,1060,883
23310,1055,885
23315,1047,882
23320,1046,880
23325,1051,879
23330,1051,876
23335,1037,877
23340,1038,874
23345,1036,874
23350,1024,873
23355,1022,869
23360,1014,870
23365,1003,863
23370,1015,866
23375,1001,867
23380,1009,860
23385,984,867
23390,977,863
23395,963,862
23400,978,854
23405,959,856
23410,948,856
23415,956,850
23420,940,853
23425,938,851
23430,933,852
23435,916,846
23440,910,844
23445,907,840
23450,900,847
23455,887,839
23460,882,844
23465,869,832
23470,863,836
23475,868,830
23480,860,830
23485,845,825
23490,842,825
23495,831,821
23500,820,822
23505,806,811
23510,811,812
23515,808,804
23520,788,800
23525,788,800
23530,785,801
23535,785,794
23540,783,786
23545,767,783
23550,771,777
23555,764,768
23560,755,770
23565,745,766
23570,749,763
23575,752,757
23580,744,745
23585,750,741
23590,747,739
23595,751,732
23600,744,727
23605,744,722
23610,747,717
23615,758,714
23620,748,713
23625,762,704
23630,748,695
23635,758,690
23640,772,690
23645,769,686
23650,777,676
23655,778,667
23660,774,667
23665,789,664
23670,792,659
23675,806,658
23680,803,650
23685,818,651
23690,819,645
23695,823,642
23700,836,641
23705,847,637
23710,850,635
23715,856,632
23720,870,627
23725,885,630
23730,890,628
23735,901,623
23740,909,629
23745,919,627
23750,929,627
23755,944,624
23760,945,630
23765,959,628
23770,975,626
23775,983,633
23780,991,625
23785,1006,638
23790,1010,634
23795,1023,639
23800,1026,644
23805,1033,650
23810,1057,648
23815,1049,650
23820,1063,656
23825,1067,664
23830,1093,665
23835,1099,671
23840,1100,678
23845,1115,681
23850,1123,683
23855,1124,693
23860,1129,703
23865,1133,711
23870,1142,712
23875,1161,722
23880,1149,725
23885,1158,737
23890,1179,737
23895,1161,740
23900,1162,750
23905,1171,759
23910,1172,769
23915,1172,777
23920,1178,783
23925,1174,789
23930,1188,797
23935,1183,802
23940,1189,808
23945,1184,818
23950,1189,828
23955,1192,828
23960,1191,837
23965,1190,839
23970,1177,851
23975,1186,854
23980,1189,858
23985,1188,863
23990,1179,866
23995,1189,870
24000,1189,883
24005,1169,889
24010,1171,889
24015,1167,894
24020,1165,900
24025,1169,901
24030,1158,909
24035,1167,909
24040,1150,907
24045,1149,926
24050,1155,920
24055,1143,923
24060,1144,926
24065,1129,926
24070,1137,928
24075,1132,928
24080,1136,934
24085,1131,930
24090,1128,931
24095,1127,930
24100,1125,935
24105,1117,930
24110,1113,930
24115,1118,930
24120,1124,926
24125,1114,926
24130,1119,929
24135,1121,927
24140,1106,921
24145,1103,922
24150,1104,923
24155,1098,926
24160,1102,923
24165,1100,919
24170,1098,916
24175,1098,919
24180,1094,912
24185,1099,907
24190,1087,914
24195,1084,906
24200,1089,904
24205,1072,906
24210,1083,903
24215,1088,901
24220,1072,900
24225,1089,897
24230,1068,892
24235,1079,894
24240,1075,889
24245,1065,888
24250,1060,887
24255,1064,886
24260,1054,883
24265,1059,880
24270,1052,884
24275,1044,878
24280,1037,878
24285,1031,875
24290,1036,872
24295,1027,874
24300,1018,872
24305,1026,872
24310,1015,866
24315,1013,867
24320,1012,865
24325,1000,865
24330,987,862
24335,985,856
24340,977,861
24345,977,860
24350,969,860
24355,965,862
24360,961,855
24365,959,858
24370,941,853
24375,947,849
24380,927,850
24385,927,851
24390,923,847
24395,906,847
24400,901,845
24405,897,840
24410,879,842
24415,874,833
24420,867,837
24425,866,829
24430,860,829
24435,853,831
24440,836,829
24445,834,825
24450,827,819
24455,804,814
24460,816,820
24465,822,806
24470,806,799
24475,791,801
24480,796,793
24485,782,786
24490,780,789
24495,776,789
24500,765,773
24505,771,776
24510,763,772
24515,757,768
24520,760,762
24525,757,754
24530,753,749
24535,744,744
24540,744,746
24545,751,733
24550,750,731
24555,755,728
24560,748,723
24565,752,720
24570,741,708
24575,748,711
24580,770,701
24585,764,695
24590,765,687
24595,769,683
24600,772,680
24605,770,674
24610,781,672
24615,785,668
24620,786,664
24625,798,657
24630,799,650
24635,808,649
24640,826,648
24645,818,646
24650,837,642
24655,841,631
24660,843,639
24665,854,637
24670,867,628
24675,880,626
24680,883,625
24685,896,630
24690,908,624
24695,917,622
24700,930,625
24705,940,627
24710,944,620
24715,962,622
24720,965,626
24725,980,631
24730,992,631
24735,1005,634
24740,1002,639
24745,1013,635
24750,1028,639
24755,1040,645
24760,1043,645
24765,1058,649
24770,1071,655
24775,1076,661
24780,1088,666
24785,1081,670
24790,1098,673
24795,1105,679
24800,1106,686
24805,1131,692
24810,1124,694
24815,1130,705
24820,1147,711
24825,1140,713
24830,1153,717
24835,1158,731
24840,1165,739
24845,1162,745
24850,1168,751
24855,1168,757
24860,1174,762
24865,1167,772
24870,1187,778
24875,1179,784
24880,1187,790
24885,1184,796
24890,1179,805
24895,1187,814
24900,1181,819
24905,1193,828
24910,1196,833
24915,1188,838
24920,1183,847
24925,1181,854
24930,1183,857
24935,1182,865
24940,1182,868
24945,1179,868
24950,1178,876
24955,1175,885
24960,1168,889
24965,1173,886
24970,1165,897
24975,1175,902
24980,1163,909
24985,1161,905
24990,1160,913
24995,1154,911
25000,1155,915
25005,1145,916
25010,1148,916
25015,1144,924
25020,1143,922
25025,1145,926
25030,1136,923
25035,1129,935
25040,1135,935
25045,1122,922
25050,1124,927
25055,1125,937
25060,1116,930
25065,1120,929
25070,1117,929
25075,1115,929
25080,1108,927
25085,1104,929
25090,1112,933
25095,1098,925
25100,1096,919
25105,1104,922
25110,1116,920
25115,1104,919
25120,1096,919
25125,1094,917
25130,1092,914
25135,1101,910
25140,1093,915
25145,1078,908
25150,1085,909
25155,1083,901
25160,1088,904
25165,1074,892
25170,1082,899
25175,1069,899
25180,1070,898
25185,1081,894
25190,1071,890
25195,1068,895
25200,1071,887
25205,1071,883
25210,1055,884
25215,1056,886
25220,1057,876
25225,1046,882
25230,1038,876
25235,1040,877
25240,1042,874
25245,1028,874
25250,1031,874
25255,1024,875
25260,1032,873
25265,1016,866
25270,1014,868
25275,998,869
25280,999,864
25285,993,863
25290,987,858
25295,980,858
25300,975,859
25305,971,857
25310,955,858
25315,952,857
25320,943,851
25325,940,852
25330,933,854
25335,932,850
25340,913,852
25345,912,845
25350,901,848
25355,889,849
25360,898,843
25365,871,841
25370,874,834
25375,866,840
25380,864,832
25385,855,830
25390,835,825
25395,832,826
25400,826,822
25405,826,812
25410,820,806
25415,812,809
25420,809,809
25425,798,804
25430,788,799
25435,784,790
25440,783,787
25445,786,786
25450,778,781
25455,777,777
25460,757,774
25465,764,769
25470,763,765
25475,753,761
25480,743,749
25485,754,744
25490,746,743
25495,752,735
25500,743,736
25505,745,730
25510,746,723
25515,745,718
25520,747,711
25525,742,706
25530,755,707
25535,753,699
25540,759,691
25545,771,682
25550,765,681
25555,771,677
25560,777,666
25565,791,667
25570,792,664
25575,789,655
25580,801,658
25585,809,658
25590,816,647
25595,829,649
25600,830,639
25605,829,637
25610,853,632
25615,847,635
25620,863,634
25625,862,633
25630,885,628
25635,880,632
25640,905,625
25645,918,622
25650,932,624
25655,929,624
25660,942,628
25665,950,631
25670,959,625
25675,970,623
25680,987,631
25685,991,627
25690,1006,632
25695,1009,636
25700,1021,635
25705,1036,644
25710,1048,645
25715,1054,652
25720,1066,653
25725,1068,663
25730,1082,657
25735,1091,663
25740,1096,669
25745,1103,683
25750,1109,687
25755,1117,693
25760,1126,692
25765,1128,701
25770,1146,709
25775,1139,711
25780,1151,725
25785,1158,724
25790,1161,733
25795,1157,737
25800,1164,743
25805,1163,757
25810,1174,764
25815,1173,768
25820,1169,775
25825,1179,782
25830,1185,784
25835,1186,801
25840,1187,801
25845,1191,812
25850,1180,813
25855,1196,821
25860,1183,835
25865,1189,840
25870,1185,840
25875,1190,854
25880,1186,856
25885,1181,853
25890,1188,864
25895,1173,870
25900,1182,879
25905,1171,882
25910,1176,885
25915,1174,892
25920,1174,899
25925,1163,899
25930,1170,899
25935,1166,899
25940,1165,914
25945,1158,913
25950,1154,917
25955,1154,919
25960,1147,922
25965,1150,921
25970,1137,927
25975,1149,924
25980,1139,923
25985,1129,929
25990,1132,929
25995,1133,925
26000,1125,930
26005,1130,928
26010,1117,930
26015,1123,930
26020,1125,932
26025,1113,936
26030,1112,929
26035,1102,928
26040,1105,934
26045,1105,924
26050,1107,922
26055,1106,920
26060,1095,922
26065,1102,924
26070,1101,920
26075,1091,915
26080,1091,921
26085,1097,914
26090,1087,914
26095,1087,911
26100,1088,907
26105,1085,908
26110,1082,902
26115,1085,903
26120,1083,905
26125,1081,901
26130,1071,895
26135,1079,895
26140,1069,893
26145,1075,888
26150,1074,892
26155,1067,883
26160,1066,886
26165,1054,883
26170,1058,880
26175,1049,883
26180,1044,879
26185,1057,878
26190,1039,877
26195,1031,869
26200,1042,873
26205,1021,875
26210,1027,873
26215,1019,869
26220,1012,866
26225,1011,865
26230,1000,866
26235,998,865
26240,993,861
26245,983,862
26250,974,859
26255,966,863
26260,970,858
26265,961,863
26270,950,856
26275,948,853
26280,942,853
26285,934,849
26290,928,851
26295,925,849
26300,911,843
26305,894,845
26310,894,839
26315,889,836
26320,880,837
26325,868,835
26330,859,831
26335,854,825
26340,843,823
26345,833,825
26350,843,820
26355,830,813
26360,813,811
26365,808,806
26370,804,809
26375,802,806
26380,792,799
26385,797,795
26390,784,793
26395,775,787
26400,770,784
26405,766,779
26410,777,775
26415,763,773
26420,756,765
26425,761,763
26430,752,756
26435,744,752
26440,746,748
26445,747,744
26450,749,740
26455,743,732
26460,744,723
26465,745,723
26470,746,714
26475,760,714
26480,753,703
26485,746,698
26490,754,695
26495,764,688
26500,770,685
26505,767,681
26510,771,675
26515,788,667
26520,786,666
26525,792,659
26530,795,656
26535,807,652
26540,809,648
26545,818,647
26550,825,645
26555,830,636
26560,837,640
26565,852,636
26570,855,635
26575,873,629
26580,884,626
26585,883,633
26590,898,632
26595,923,625
26600,915,628
26605,928,620
26610,934,626
26615,945,631
26620,958,629
26625,965,622
26630,975,630
26635,986,627
26640,990,631
26645,1010,634
26650,1027,639
26655,1036,638
26660,1034,646
26665,1040,644
26670,1056,649
26675,1056,653
26680,1072,664
26685,1082,668
26690,1088,670
26695,1102,675
26700,1106,679
26705,1113,685
26710,1126,688
26715,1131,690
26720,1132,703
26725,1140,716
26730,1134,720
26735,1155,730
26740,1149,730
26745,1167,733
26750,1168,746
26755,1174,752
26760,1171,759
26765,1172,765
26770,1175,773
26775,1175,778
26780,1180,786
26785,1187,793
26790,1174,800
26795,1184,812
26800,1179,820
26805,1193,825
26810,1187,825
26815,1188,823
26820,1173,841
26825,1198,848
26830,1184,855
26835,1182,857
26840,1178,864
26845,1184,868
26850,1179,875
26855,1173,879
26860,1172,887
26865,1172,887
26870,1179,893
26875,1166,891
26880,1172,903
26885,1167,903
26890,1174,907
26895,1154,911
26900,1163,914
26905,1160,915
26910,1155,918
26915,1143,919
26920,1142,918
26925,1150,925
26930,1142,930
26935,1131,924
26940,1131,930
26945,1128,932
26950,1133,933
26955,1133,930
26960,1132,929
26965,1122,931
26970,1118,929
26975,1106,929
26980,1117,930
26985,1113,924
26990,1112,930
26995,1107,928
27000,1106,921
27005,1101,924
27010,1095,926
27015,1099,920
27020,1094,926
27025,1096,916
27030,1100,914
27035,1093,913
27040,1088,914
27045,1089,914
27050,1085,910
27055,1084,906
27060,1086,907
27065,1074,900
27070,1075,903
27075,1083,895
27080,1077,897
27085,1073,899
27090,1069,894
27095,1077,889
27100,1062,885
27105,1065,887
27110,1068,885
27115,1059,893
27120,1062,880
27125,1051,877
27130,1048,880
27135,1050,883
27140,1051,878
27145,1034,872
27150,1035,878
27155,1033,870
27160,1026,871
27165,1017,873
27170,1015,865
27175,1009,873
27180,1002,865
27185,995,862
27190,995,865
27195,984,858
27200,977,856
27205,978,860
27210,967,857
27215,967,861
27220,947,859
27225,946,848
27230,938,849
27235,937,851
27240,926,849
27245,911,850
27250,906,846
27255,904,843
27260,906,842
27265,886,838
27270,885,844
27275,866,832
27280,855,833
27285,859,831
27290,858,825
27295,850,827
27300,837,823
27305,826,819
27310,817,815
27315,822,806
27320,816,811
27325,810,808
27330,799,796
27335,787,792
27340,788,795
27345,766,793
27350,768,789
27355,773,780
27360,773,776
27365,775,772
27370,756,769
27375,753,765
27380,750,754
27385,760,753
27390,736,752
27395,747,740
27400,750,736
27405,749,730
27410,743,729
27415,753,717
27420,754,717
27425,750,710
27430,754,706
27435,751,698
27440,766,696
27445,763,692
27450,765,688
27455,769,686
27460,777,679
27465,772,670
27470,779,666
27475,791,659
27480,794,661
27485,801,656
27490,809,651
27495,815,647
27500,829,647
27505,836,639
27510,840,645
27515,850,638
27520,865,632
27525,869,630
27530,871,626
27535,888,623
27540,890,622
27545,903,625
27550,911,628
27555,915,622
27560,934,627
27565,940,630
27570,962,627
27575,960,631
27580,985,623
27585,982,633
27590,997,633
27595,1006,630
27600,1015,632
27605,1035,636
27610,1029,644
27615,1039,638
27620,1054,655
27625,1060,654
27630,1066,655
27635,1076,665
27640,1081,666
27645,1103,672
27650,1101,672
27655,1112,684
27660,1114,696
27665,1126,694
27670,1125,701
27675,1135,707
27680,1146,715
27685,1153,716
27690,1152,726
27695,1163,738
27700,1162,740
27705,1178,746
27710,1167,751
27715,1177,764
27720,1185,769
27725,1175,769
27730,1180,781
27735,1179,789
27740,1190,798
27745,1187,804
27750,1192,811
27755,1194,819
27760,1183,822
27765,1198,828
27770,1188,841
27775,1194,843
27780,1181,848
27785,1192,860
27790,1184,859
27795,1184,872
27800,1172,876
27805,1185,876
27810,1186,887
27815,1173,892
27820,1173,893
27825,1172,897
27830,1166,901
27835,1163,906
27840,1162,910
27845,1169,910
27850,1160,911
27855,1157,914
27860,1158,916
27865,1155,923
27870,1141,922
27875,1144,923
27880,1133,928
27885,1140,925
27890,1135,925
27895,1131,934
27900,1128,927
27905,1122,930
27910,1126,927
27915,1127,929
27920,1117,930
27925,1113,933
27930,1109,933
27935,1114,926
27940,1113,923
27945,1115,927
27950,1103,928
27955,1104,922
27960,1109,921
27965,1098,924
27970,1106,921
27975,1097,917
27980,1101,914
27985,1100,919
27990,1101,916
27995,1091,914
28000,1085,906
28005,1094,905
28010,1089,903
28015,1085,903
28020,1081,899
28025,1076,897
28030,1081,897
28035,1070,895
28040,1074,890
28045,1076,891
28050,1068,889
28055,1074,887
28060,1063,888
28065,1064,884
28070,1060,885
28075,1052,879
28080,1053,883
28085,1048,880
28090,1046,876
28095,1039,874
28100,1035,879
28105,1030,870
28110,1027,871
28115,1019,868
28120,1017,868
28125,1011,866
28130,994,865
28135,1002,862
28140,993,865
28145,990,863
28150,985,856
28155,974,860
28160,979,859
28165,962,855
28170,954,855
28175,945,852
28180,944,854
28185,943,849
28190,930,850
28195,921,855
28200,919,843
28205,908,848
28210,906,841
28215,894,840
28220,881,840
28225,872,843
28230,877,836
28235,857,832
28240,852,829
28245,851,827
28250,841,823
28255,848,821
28260,831,816
28265,820,809
28270,811,811
28275,820,814
28280,807,805
28285,801,796
28290,788,789
28295,780,792
28300,782,789
28305,774,784
28310,776,778
28315,760,778
28320,769,771
28325,764,765
28330,756,760
28335,744,750
28340,755,752
28345,749,746
28350,747,744
28355,749,735
28360,743,729
28365,754,723
28370,746,719
28375,745,709
28380,745,708
28385,758,704
28390,751,697
28395,763,694
28400,767,687
28405,755,684
28410,769,684
28415,774,673
28420,776,671
28425,790,662
28430,785,661
28435,801,657
28440,808,654
28445,801,643
28450,822,649
28455,823,643
28460,839,636
28465,842,638
28470,846,632
28475,860,633
28480,882,634
28485,875,630
28490,888,626
28495,908,633
28500,918,627
28505,924,629
28510,933,622
28515,941,625
28520,951,628
28525,957,623
28530,971,625
28535,980,627
28540,991,636
28545,1006,633
28550,1003,635
28555,1013,642
28560,1024,640
28565,1037,647
28570,1044,649
28575,1056,653
28580,1065,654
28585,1067,656
28590,1072,670
28595,1100,664
28600,1098,675
28605,1102,676
28610,1110,687
28615,1125,691
28620,1125,704
28625,1135,705
28630,1135,706
28635,1152,715
28640,1153,727
28645,1156,734
28650,1156,738
28655,1155,743
28660,1155,755
28665,1175,761
28670,1173,767
28675,1188,778
28680,1180,778
28685,1176,787
28690,1185,797
28695,1180,801
28700,1186,803
28705,1182,819
28710,1194,823
28715,1195,831
28720,1185,836
28725,1192,841
28730,1178,851
28735,1192,856
28740,1182,859
28745,1179,864
28750,1185,869
28755,1186,869
28760,1176,880
28765,1173,884
28770,1180,889
28775,1183,889
28780,1168,898
28785,1170,909
28790,1169,906
28795,1166,908
28800,1165,912
28805,1163,905
28810,1155,915
28815,1148,914
28820,1142,922
28825,1141,920
28830,1145,923
28835,1138,928
28840,1143,927
28845,1129,927
28850,1139,924
28855,1127,924
28860,1123,930
28865,1129,935
28870,1120,934
28875,1115,930
28880,1120,930
28885,1112,932
28890,1103,931
28895,1107,924
28900,1107,926
28905,1100,925
28910,1098,924
28915,1098,921
28920,1099,924
28925,1097,915
28930,1099,917
28935,1091,910
28940,1094,912
28945,1100,908
28950,1085,911
28955,1085,911
28960,1094,913
28965,1081,899
28970,1069,903
28975,1082,900
28980,1087,899
28985,1072,901
28990,1080,900
28995,1067,892
29000,1061,887
29005,1070,884
29010,1061,887
29015,1062,886
29020,1060,884
29025,1057,887
29030,1053,882
29035,1046,879
29040,1046,876
29045,1039,877
29050,1044,879
29055,1030,873
29060,1031,869
29065,1024,871
29070,1007,862
29075,1011,872
29080,1011,868
29085,1007,869
29090,995,865
29095,992,865
29100,982,858
29105,986,862
29110,975,856
29115,963,856
29120,971,857
29125,947,853
29130,955,859
29135,941,856
29140,935,849
29145,925,847
29150,920,848
29155,911,844
29160,906,846
29165,899,838
29170,885,842
29175,888,841
29180,866,830
29185,859,833
29190,864,829
29195,848,827
29200,836,832
29205,846,821
29210,824,820
29215,825,819
29220,821,814
29225,804,809
29230,807,802
29235,791,797
29240,792,801
29245,784,788
29250,784,790
29255,777,780
29260,773,785
29265,769,772
29270,763,772
29275,762,767
29280,751,762
29285,762,758
29290,753,750
29295,748,744
29300,752,739
29305,743,738
29310,749,730
29315,741,731
29320,737,721
29325,750,717
29330,749,716
29335,750,705
29340,753,704
29345,758,693
29350,771,693
29355,768,685
29360,764,682
29365,769,675
29370,783,673
29375,778,662
29380,792,665
29385,793,658
29390,809,649
29395,808,648
29400,826,651
29405,823,644
29410,833,640
29415,842,639
29420,856,631
29425,861,635
29430,872,630
29435,877,633
29440,883,629
29445,896,623
29450,904,627
29455,916,622
29460,922,623
29465,929,625
29470,950,622
29475,958,625
29480,965,623
29485,964,630
29490,989,630
29495,992,627
29500,1004,632
29505,1028,630
29510,1028,639
29515,1033,643
29520,1041,649
29525,1054,654
29530,1063,656
29535,1071,653
29540,1078,663
29545,1092,671
29550,1101,674
29555,1102,681
29560,1110,682
29565,1118,687
29570,1133,699
29575,1124,696
29580,1130,714
29585,1148,715
29590,1153,715
29595,1155,724
29600,1157,737
29605,1166,739
29610,1166,755
29615,1168,758
29620,1173,765
29625,1179,768
29630,1178,780
29635,1182,777
29640,1186,795
29645,1184,801
29650,1181,804
29655,1178,808
29660,1189,816
29665,1188,826
29670,1184,832
29675,1183,838
29680,1188,839
29685,1185,851
29690,1183,859
29695,1193,863
29700,1181,874
29705,1186,877
29710,1181,877
29715,1179,881
29720,1176,888
29725,1170,895
29730,1165,899
29735,1170,901
29740,1168,904
29745,1173,903
29750,1163,912
29755,1159,911
29760,1147,917
29765,1149,921
29770,1138,917
29775,1144,925
29780,1140,925
29785,1141,929
29790,1137,927
29795,1135,933
29800,1129,933
29805,1133,929
29810,1128,932
29815,1122,931
29820,1125,934
29825,1127,930
29830,1117,932
29835,1115,928
29840,1120,932
29845,1101,928
29850,1105,921
29855,1116,924
29860,1108,925
29865,1106,926
29870,1107,928
29875,1091,924
29880,1103,915
29885,1095,917
29890,1102,915
29895,1093,908
29900,1092,907
29905,1090,906
29910,1079,909
29915,1084,904
29920,1077,901
29925,1082,896
29930,1076,901
29935,1080,901
29940,1067,895
29945,1073,899
29950,1076,889
29955,1074,889
29960,1065,887
29965,1066,888
29970,1066,884
29975,1049,877
29980,1051,881
29985,1049,877
29990,1044,878
29995,1035,873
30000,1040,875
30005,1029,878
30010,1025,876
30015,1025,872
30020,1015,872
30025,1023,871
30030,1009,867
30035,1006,872
30040,998,872
30045,993,859
30050,993,862
30055,985,863
30060,973,860
30065,972,862
30070,967,852
30075,958,854
30080,958,855
30085,950,849
30090,949,852
30095,933,852
30100,910,847
30105,916,846
30110,904,842
30115,897,841
30120,891,840
30125,881,836
30130,870,838
30135,862,835
30140,859,831
30145,856,828
30150,843,825
30155,839,829
30160,841,816
30165,830,821
30170,816,816
30175,819,816
30180,807,802
30185,791,808
30190,792,802
30195,796,795
30200,793,794
30205,782,787
30210,779,783
30215,771,775
30220,762,776
30225,768,767
30230,761,760
30235,758,759
30240,750,755
30245,756,754
30250,746,749
30255,747,736
30260,747,732
30265,748,726
30270,744,724
30275,744,714
30280,754,715
30285,748,703
30290,755,698
30295,754,698
30300,763,700
30305,762,690
30310,768,684
30315,761,677
30320,775,676
30325,782,671
30330,786,670
30335,798,659
30340,800,654
30345,800,653
30350,818,644
30355,824,648
30360,842,643
30365,841,643
30370,844,640
30375,853,636
30380,866,634
30385,876,624
30390,878,625
30395,891,625
30400,892,624
30405,914,629
30410,925,622
30415,931,620
30420,939,626
30425,950,627
30430,966,626
30435,966,628
30440,979,629
30445,983,631
30450,998,632
30455,1007,637
30460,1015,635
30465,1025,643
30470,1042,644
30475,1051,651
30480,1063,647
30485,1063,657
30490,1075,666
30495,1074,667
30500,1087,669
30505,1093,673
30510,1110,686
30515,1114,688
30520,1131,692
30525,1140,695
30530,1138,700
30535,1137,707
30540,1156,717
30545,1153,725
30550,1158,731
30555,1164,737
30560,1170,741
30565,1174,755
30570,1173,767
30575,1178,771
30580,1184,773
30585,1176,774
30590,1178,789
30595,1180,789
30600,1191,801
30605,1191,808
30610,1179,817
30615,1192,816
30620,1185,826
30625,1187,835
30630,1191,839
30635,1191,845
30640,1185,856
30645,1168,860
30650,1175,863
30655,1187,871
30660,1185,881
30665,1175,879
30670,1174,883
30675,1162,888
30680,1169,894
30685,1167,897
30690,1173,903
30695,1158,905
30700,1158,909
30705,1165,912
30710,1151,915
30715,1157,922
30720,1150,918
30725,1156,924
30730,1142,923
30735,1151,927
30740,1137,927
30745,1138,932
30750,1144,926
30755,1131,931
30760,1127,928
30765,1120,927
30770,1113,925
30775,1128,936
30780,1116,934
30785,1126,929
30790,1117,933
30795,1105,924
30800,1108,929
30805,1100,924
30810,1109,921
30815,1106,917
30820,1095,923
30825,1103,918
30830,1094,921
30835,1100,914
30840,1103,915
30845,1096,917
30850,1086,914
30855,1086,911
30860,1090,910
30865,1080,907
30870,1084,906
30875,1078,905
30880,1081,894
30885,1072,899
30890,1077,898
30895,1072,899
30900,1070,891
30905,1074,894
30910,1065,888
30915,1062,891
30920,1065,889
30925,1062,879
30930,1055,878
30935,1051,882
30940,1041,884
30945,1046,876
30950,1037,876
30955,1034,874
30960,1034,871
30965,1028,873
30970,1022,862
30975,1022,864
30980,1014,873
30985,1008,862
30990,1001,866
30995,990,866
31000,990,868
31005,981,865
31010,982,861
31015,969,858
31020,971,859
31025,957,860
31030,944,852
31035,949,855
31040,937,848
31045,929,852
31050,922,848
31055,910,848
31060,909,846
31065,898,846
31070,895,843
31075,886,838
31080,883,831
31085,872,836
31090,858,835
31095,865,836
31100,846,827
31105,848,825
31110,843,817
31115,819,816
31120,835,821
31125,817,812
31130,803,808
31135,802,808
31140,793,807
31145,790,799
31150,783,796
31155,784,790
31160,771,780
31165,770,780
31170,764,774
31175,776,774
31180,755,760
31185,755,759
31190,759,757
31195,753,748
31200,750,751
31205,745,745
31210,756,741
31215,749,735
31220,750,725
31225,753,723
31230,749,720
31235,754,706
31240,758,708
31245,747,697
31250,761,696
31255,769,685
31260,767,683
31265,765,682
31270,777,675
31275,773,674
31280,788,667
31285,786,662
31290,793,662
31295,802,652
31300,811,645
31305,821,645
31310,823,637
31315,825,641
31320,848,640
31325,854,635
31330,856,632
31335,873,630
31340,872,632
31345,889,630
31350,897,629
31355,900,632
31360,917,620
31365,925,624
31370,934,624
31375,945,630
31380,957,631
31385,964,623
31390,969,623
31395,983,629
31400,999,633
31405,1012,634
31410,1025,642
31415,1028,637
31420,1030,646
31425,1049,641
31430,1048,656
31435,1060,655
31440,1062,659
31445,1072,667
31450,1090,669
31455,1094,675
31460,1105,676
31465,1111,687
31470,1119,685
31475,1125,697
31480,1134,701
31485,1131,711
31490,1145,715
31495,1154,723
31500,1150,726
31505,1163,737
31510,1173,742
31515,1165,754
31520,1167,759
31525,1174,764
31530,1177,775
31535,1178,786
31540,1189,786
31545,1175,791
31550,1185,796
31555,1193,806
31560,1188,811
31565,1185,820
31570,1190,825
31575,1179,829
31580,1184,841
31585,1189,843
31590,1188,848
31595,1186,859
31600,1179,864
31605,1181,865
31610,1174,876
31615,1180,880
31620,1170,879
31625,1179,888
31630,1178,891
31635,1165,898
31640,1168,903
31645,1165,909
31650,1168,912
31655,1158,905
31660,1157,920
31665,1158,918
31670,1137,918
31675,1156,917
31680,1140,918
31685,1140,923
31690,1142,926
31695,1136,928
31700,1146,926
31705,1136,925
31710,1131,932
31715,1123,935
31720,1129,931
31725,1123,925
31730,1124,935
31735,1116,927
31740,1124,922
31745,1118,928
31750,1114,925
31755,1114,929
31760,1103,924
31765,1103,921
31770,1097,921
31775,1101,920
31780,1095,918
31785,1096,920
31790,1093,915
31795,1092,910
31800,1084,912
31805,1088,907
31810,1088,911
31815,1076,906
31820,1086,902
31825,1086,904
31830,1080,904
31835,1075,899
31840,1079,896
31845,1072,895
31850,1074,898
31855,1078,892
31860,1069,885
31865,1063,885
31870,1059,890
31875,1064,888
31880,1056,886
31885,1056,887
31890,1057,880
31895,1045,882
31900,1045,876
31905,1045,876
31910,1035,867
31915,1039,877
31920,1035,877
31925,1021,873
31930,1019,874
31935,1012,862
31940,1007,869
31945,997,866
31950,989,866
31955,990,868
31960,979,859
31965,981,864
31970,976,862
31975,955,857
31980,951,859
31985,950,857
31990,933,856
31995,931,855
32000,926,850
32005,921,848
32009,912,848
32015,905,844
32020,901,841
32025,881,837
32030,895,836
32034,872,837
32040,874,830
32045,869,830
32049,846,830
32055,855,822
32060,838,823
32064,832,823
32070,826,815
32075,825,813
32080,817,812
32085,809,800
32090,798,810
32095,795,802
32100,782,796
32104,785,790
32110,774,781
32115,769,781
32119,762,777
32125,762,773
32130,762,769
32134,759,771
32140,758,759
32145,750,754
32150,753,748
32155,753,743
32159,749,740
32165,749,731
32170,740,728
32174,746,719
32180,750,721
32185,744,710
32189,753,703
32195,751,701
32200,757,700
32205,766,696
32210,758,688
32215,774,683
32220,767,682
32225,771,676
32229,774,672
32235,781,666
32240,796,659
32244,802,659
32250,815,653
32255,822,647
32259,822,639
32265,831,642
32270,839,639
32275,845,640
32280,848,632
32284,858,633
32290,872,626
32295,881,625
32299,888,634
32305,907,622
32310,918,624
32314,917,628
32320,932,626
32325,943,624
32330,947,625
32335,956,625
32340,973,633
32345,990,625
32350,993,634
32354,999,630
32360,1008,637
32365,1022,638
32369,1021,642
32375,1040,646
32380,1055,650
32384,1073,652
32390,1067,661
32395,1075,660
32400,1087,667
32405,1087,673
32409,1110,679
32415,1101,681
32420,1110,688
32424,1128,690
32430,1128,700
32435,1141,701
32439,1140,713
32445,1141,723
32450,1158,726
32455,1151,737
32460,1157,739
32465,1155,742
32470,1177,750
32475,1176,761
32479,1176,766
32485,1179,769
32490,1166,784
32494,1179,788
32500,1180,800
32505,1185,804
32509,1184,814
32515,1193,812
32520,1188,821
32525,1190,828
32530,1183,839
32534,1188,843
32540,1192,850
32545,1178,853
32549,1193,859
32555,1185,868
32560,1189,870
32564,1174,876
32570,1172,878
32575,1173,889
32580,1176,891
32585,1174,894
32590,1183,898
32595,1164,901
32600,1162,902
32604,1164,911
32610,1162,916
32615,1161,916
32619,1153,918
32625,1147,922
32630,1155,918
32634,1150,924
32640,1141,919
32645,1149,923
32650,1133,925
32655,1145,923
32659,1129,929
32665,1128,927
32670,1127,928
32674,1128,925
32680,1123,926
32685,1118,928
32689,1129,930
32695,1114,923
32700,1107,925
32705,1117,926
32710,1104,928
32715,1106,921
32720,1087,921
32725,1089,918
32729,1099,920
32735,1093,917
32740,1095,915
32744,1099,916
32750,1092,910
32755,1082,914
32759,1091,903
32765,1083,912
32770,1084,907
32775,1084,904
32780,1084,903
32785,1081,906
32790,1083,895
32795,1077,900
32800,1071,893
32805,1071,890
32810,1071,887
32815,1069,888
32820,1053,887
32825,1064,890
32830,1063,882
32835,1046,887
32840,1049,878
32845,1041,879
32850,1047,877
32855,1049,876
32860,1042,876
32865,1034,869
32870,1036,872
32875,1016,872
32880,1014,870
32885,1012,868
32890,1003,866
32895,1001,871
32900,996,868
32905,994,864
32910,977,862
32915,971,860
32920,982,858
32925,965,854
32930,964,858
32935,953,857
32940,940,853
32945,939,851
32950,933,852
32955,916,850
32960,923,848
32965,917,846
32970,899,840
32975,885,843
32980,888,836
32985,874,844
32990,879,835
32995,868,831
33000,864,834
33005,855,828
33010,837,826
33015,836,822
33020,832,817
33025,812,813
33030,815,815
33035,804,808
33040,796,802
33045,798,804
33050,782,794
33055,792,794
33060,783,791
33065,780,782
33070,775,778
33075,760,776
33080,764,773
33085,761,765
33090,750,761
33095,752,753
33100,753,748
33105,748,745
33110,745,741
33115,744,736
33120,743,732
33125,749,729
33130,747,720
33135,745,717
33140,757,717
33145,748,703
33150,761,699
33155,765,689
33160,763,686
33165,765,688
33170,772,687
33175,767,677
33180,779,676
33185,785,665
33190,781,662
33195,798,659
33200,799,655
33205,809,650
33210,821,651
33215,822,646
33220,835,641
33225,844,639
33230,849,629
33235,871,638
33240,877,631
33245,874,632
33250,891,627
33255,893,625
33260,908,628
33265,912,623
33270,923,631
33275,938,621
33280,946,624
33285,945,627
33290,976,622
33295,973,626
33300,987,635
33305,996,636
33310,1001,635
33315,1015,634
33320,1025,643
33325,1042,647
33330,1054,652
33335,1044,650
33340,1064,659
33345,1082,658
33350,1084,661
33355,1087,673
33360,1096,672
33365,1102,685
33370,1125,687
33375,1119,694
33380,1131,694
33385,1129,704
33390,1131,712
33395,1139,715
33400,1145,719
33405,1162,727
33410,1166,740
33415,1169,745
33420,1179,747
33425,1171,753
33430,1178,767
33435,1181,772
33440,1181,769
33445,1176,784
33450,1180,788
33455,1181,794
33460,1185,803
33465,1196,812
33470,1193,817
33475,1197,824
33480,1196,832
33485,1186,842
33490,1181,838
33495,1191,848
33500,1185,860
33505,1186,870
33510,1191,871
33515,1189,873
33520,1182,881
33525,1180,881
33530,1172,885
33535,1166,894
33540,1169,899
33545,1170,901
33550,1161,906
33555,1169,909
33560,1152,912
33565,1152,912
33570,1149,917
33575,1142,920
33580,1151,926
33585,1147,925
33590,1143,928
33595,1146,923
33600,1136,930
33605,1137,931
33610,1138,928
33615,1124,931
33620,1141,935
33625,1129,933
33630,1126,932
33635,1121,930
33640,1123,931
33645,1121,935
33650,1122,922
33655,1110,927
33660,1106,925
33665,1101,930
33670,1105,925
33675,1102,923
33680,1105,922
33685,1104,920
33690,1100,920
33695,1090,913
33700,1091,914
33705,1090,909
33710,1084,909
33715,1086,912
33720,1095,909
33725,1090,900
33730,1078,899
33735,1080,902
33740,1072,903
33745,1086,903
33750,1068,895
33755,1073,889
33760,1060,896
33765,1061,896
33770,1067,890
33775,1065,882
33780,1052,887
33785,1058,884
33790,1061,882
33795,1049,880
33800,1051,879
33805,1036,876
33810,1034,877
33815,1036,871
33820,1027,868
33825,1023,868
33830,1012,869
33835,1027,868
33840,1008,871
33845,998,862
33850,1003,865
33855,995,866
33860,986,867
33865,974,865
33870,977,862
33875,961,854
33880,963,851
33885,959,859
33890,943,858
33895,938,853
33900,933,854
33905,928,850
33910,921,847
33915,903,847
33920,904,846
33925,900,840
33930,894,841
33935,882,834
33940,883,839
33945,874,834
33950,854,833
33955,855,828
33960,839,822
33965,838,827
33970,827,819
33975,823,820
33980,813,814
33985,812,809
33990,792,805
33995,799,800
34000,803,798
34005,790,796
34010,781,796
34015,780,778
34020,773,779
34025,758,778
34030,763,774
34035,763,769
34040,751,763
34045,760,763
34050,746,753
34055,751,757
34060,752,746
34065,752,737
34070,745,727
34075,757,729
34080,745,724
34085,747,716
34090,757,712
34095,746,700
34100,761,702
34105,761,696
34110,757,695
34115,764,692
34120,771,678
34125,770,674
34130,769,675
34135,780,666
34140,787,667
34145,794,655
34150,803,651
34155,811,647
34160,807,651
34165,827,644
34170,834,644
34175,845,637
34180,849,635
34185,858,633
34190,866,632
34195,872,626
34200,881,627
34205,891,627
34210,906,631
34215,906,624
34220,928,622
34225,938,624
34230,943,623
34235,950,625
34240,967,624
34245,967,622
34250,982,630
34255,994,630
34260,1006,636
34265,1018,635
34270,1028,637
34275,1027,640
34280,1053,644
34285,1047,646
34290,1054,654
34295,1059,656
34300,1085,659
34305,1089,671
34310,1094,673
34315,1099,677
34320,1107,682
34325,1113,687
34330,1130,699
34335,1127,700
34340,1132,708
34345,1148,716
34350,1148,719
34355,1148,721
34360,1155,732
34365,1170,738
34370,1171,748
34375,1171,749
34380,1176,754
34385,1173,761
34390,1179,771
34395,1174,785
34400,1182,792
34405,1185,796
34410,1179,804
34415,1188,811
34420,1181,812
34425,1193,821
34430,1189,834
34435,1191,836
34440,1190,846
34445,1197,848
34450,1180,853
34455,1186,865
34460,1184,866
34465,1185,870
34470,1186,877
34475,1187,880
34480,1176,886
34485,1175,889
34490,1170,894
34495,1173,900
34500,1164,902
34505,1161,904
34510,1158,913
34515,1154,910
34520,1163,915
34525,1151,922
34530,1151,919
34535,1148,923
34540,1149,924
34545,1128,924
34550,1142,926
34555,1139,925
34560,1132,931
34565,1130,935
34570,1129,927
34575,1128,931
34580,1126,928
34585,1125,926
34590,1121,928
34595,1104,927
34600,1121,933
34605,1110,928
34610,1114,924
34615,1108,922
34620,1111,923
34625,1109,925
34630,1098,926
34635,1110,921
34640,1099,919
34645,1099,919
34650,1095,915
34655,1096,911
34660,1081,907
34665,1090,909
34670,1091,905
34675,1084,905
34680,1083,903
34685,1074,902
34690,1084,894
34695,1073,900
34700,1073,898
34705,1065,898
34710,1069,890
34715,1072,895
34720,1063,890
34725,1060,891
34730,1060,888
34735,1061,890
34740,1048,887
34745,1054,878
34750,1049,881
34755,1048,873
34760,1029,874
34765,1036,873
34770,1031,873
34775,1034,868
34780,1026,878
34785,1012,867
34790,1012,867
34795,1011,869
34800,1004,871
34805,1001,863
34810,983,863
34815,983,862
34820,983,866
34825,969,865
34830,967,863
34835,963,854
34840,949,860
34845,937,854
34850,938,851
34855,928,855
34860,917,846
34865,925,844
34870,907,845
34875,895,844
34880,885,843
34885,885,839
34890,877,830
34895,878,833
34900,861,832
34905,854,827
34910,841,823
34915,838,822
34920,835,824
34925,827,823
34930,821,813
34935,812,811
34940,814,802
34945,804,799
34950,797,801
34955,794,800
34960,787,792
34965,777,788
34970,771,784
34975,766,786
34980,771,775
34985,766,769
34990,772,764
34995,748,761
35000,754,756
35005,762,750
35010,744,746
35015,742,742
35020,751,730
35025,747,730
35030,751,727
35035,756,718
35040,742,712
35045,749,707
35050,747,699
35055,753,703
35060,757,695
35065,761,687
35070,765,683
35075,772,680
35080,772,671
35085,778,670
35090,779,667
35095,787,663
35100,802,659
35105,813,647
35110,804,646
35115,820,649
35120,825,649
35125,840,636
35130,852,637
35135,850,635
35140,860,635
35145,865,629
35150,887,626
35155,893,629
35160,899,629
35165,905,627
35170,922,621
35175,925,621
35180,954,627
35185,953,625
35190,960,627
35195,964,623
35200,983,627
35205,981,628
35210,1004,625
35215,1014,638
35220,1024,636
35225,1029,639
35230,1034,645
35235,1042,650
35240,1053,654
35245,1062,660
35250,1072,656
35255,1085,661
35260,1088,666
35265,1101,675
35270,1107,682
35275,1115,684
35280,1121,693
35285,1129,701
35290,1138,701
35295,1137,705
35300,1145,717
35305,1153,716
35310,1148,733
35315,1157,737
35320,1171,741
35325,1161,749
35330,1172,762
35335,1170,761
35340,1180,770
35345,1179,777
35350,1177,781
35355,1194,794
35360,1178,801
35365,1182,809
35370,1190,810
35375,1181,819
35380,1184,832
35385,1184,828
35390,1180,841
35395,1192,842
35400,1180,855
35405,1189,861
35410,1187,861
35415,1183,875
35420,1179,878
35425,1183,874
35430,1174,889
35435,1171,888
35440,1172,896
35445,1179,893
35450,1162,902
35455,1162,902
35460,1163,908
35465,1165,915
35470,1153,914
35475,1158,916
35480,1150,921
35485,1151,920
35490,1148,921
35495,1139,925
35500,1138,924
35505,1140,925
35510,1140,925
35515,1134,925
35520,1131,932
35525,1127,933
35530,1119,930
35535,1110,931
35540,1117,938
35545,1115,939
35550,1117,930
35555,1110,926
35560,1109,930
35565,1117,928
35570,1113,924
35575,1098,918
35580,1107,920
35585,1101,917
35590,1100,924
35595,1098,914
35600,1091,916
35605,1096,915
35610,1093,915
35615,1088,912
35620,1089,908
35625,1092,901
35630,1082,905
35635,1078,902
35640,1087,898
35645,1074,898
35650,1080,897
35655,1070,895
35660,1067,897
35665,1062,889
35670,1061,889
35675,1072,890
35680,1061,883
35685,1059,884
35690,1056,881
35695,1058,876
35700,1046,877
35705,1045,880
35710,1034,880
35715,1043,874
35720,1025,871
35725,1028,873
35730,1026,867
35735,1024,865
35740,1010,872
35745,1006,865
35750,1005,863
35755,994,860
35760,999,870
35765,994,867
35770,969,864
35775,977,860
35780,966,858
35785,956,855
35790,953,856
35795,952,855
35800,947,853
35805,929,851
35810,913,856
35815,917,851
35820,911,848
35825,888,839
35830,899,839
35835,882,839
35840,889,840
35845,877,832
35850,862,832
35855,857,830
35860,854,833
35865,857,824
35870,844,825
35875,826,823
35880,830,812
35885,806,815
35890,820,809
35895,804,805
35900,787,805
35905,787,799
35910,786,796
35915,785,790
35920,779,783
35925,776,787
35930,760,775
35935,768,771
35940,763,765
35945,759,768
35950,746,757
35955,745,755
35960,746,749
35965,746,741
35970,748,738
35975,750,733
35980,742,728
35985,751,726
35990,757,718
35995,761,712
36000,757,713
36005,761,705
36010,759,698
36015,754,694
36020,759,685
36025,765,681
36030,768,679
36035,782,668
36040,797,665
36045,796,660
36050,788,662
36055,803,655
36060,803,657
36065,819,649
36070,827,645
36075,830,645
36080,841,636
36085,837,637
36090,862,636
36095,861,631
36100,880,626
36105,883,627
36110,899,633
36115,911,626
36120,914,625
36125,923,625
36130,927,625
36135,941,628
36140,955,624
36145,970,633
36150,968,626
36155,995,633
36160,1001,630
36165,1001,635
36170,1016,634
36175,1025,637
36180,1029,632
36185,1045,642
36190,1053,649
36195,1067,653
36200,1076,660
36205,1074,660
36210,1084,673
36215,1092,675
36220,1105,682
36225,1107,685
36230,1116,686
36235,1122,692
36240,1130,704
36245,1138,710
36250,1140,715
36255,1152,722
36260,1160,728
36265,1153,731
36270,1163,736
36275,1169,748
36280,1167,747
36285,1178,765
36290,1180,765
36295,1184,771
36300,1184,786
36305,1180,789
36310,1191,797
36315,1189,802
36320,1184,814
36325,1191,817
36330,1188,819
36335,1186,827
36340,1195,836
36345,1181,840
36350,1191,848
36355,1185,861
36360,1182,859
36365,1189,873
36370,1178,870
36375,1176,877
36380,1173,874
36385,1174,885
36390,1177,884
36395,1169,896
36400,1169,900
36405,1169,904
36410,1161,907
36415,1165,910
36420,1162,916
36425,1161,917
36430,1153,920
36435,1149,914
36440,1132,925
36445,1142,923
36450,1138,927
36455,1145,931
36460,1139,934
36465,1130,929
36470,1124,923
36475,1127,930
36480,1130,930
36485,1128,930
36490,1119,932
36495,1117,930
36500,1117,929
36505,1108,927
36510,1111,927
36515,1115,933
36520,1101,925
36525,1108,926
36530,1102,922
36535,1101,928
36540,1100,918
36545,1098,917
36550,1098,913
36555,1086,920
36560,1098,910
36565,1093,911
36570,1087,911
36575,1083,902
36580,1081,905
36585,1080,905
36590,1072,896
36595,1074,898
36600,1077,900
36605,1067,897
36610,1075,894
36615,1076,893
36620,1067,891
36625,1064,888
36630,1069,889
36635,1057,884
36640,1058,882
36645,1054,881
36650,1061,885
36655,1047,883
36660,1038,875
36665,1034,874
36670,1031,871
36675,1031,873
36680,1028,870
36685,1021,867
36690,1016,873
36695,1007,867
36700,1003,864
36705,1003,869
36710,1000,868
36715,994,866
36720,985,866
36725,971,861
36730,967,859
36735,961,857
36740,946,857
36745,947,858
36750,942,852
36755,931,851
36760,932,850
36765,912,851
36770,915,848
36775,908,844
36780,908,843
36785,904,840
36790,884,846
36795,871,836
36800,871,833
36805,858,832
36810,858,829
36815,851,831
36820,836,826
36825,825,817
36830,825,819
36835,821,814
36840,807,810
36845,794,808
36850,808,805
36855,795,804
36860,791,799
36865,776,789
36870,775,785
36875,774,787
36880,761,777
36885,750,777
36890,770,771
36895,754,759
36900,755,760
36905,755,756
36910,753,748
36915,754,741
36920,748,739
36925,743,738
36930,748,724
36935,749,727
36940,745,718
36945,742,719
36950,757,713
36955,761,706
36960,749,700
36965,773,699
36970,764,693
36975,758,686
36980,771,678
36985,776,674
36990,769,663
36995,787,668
