timestamp_ms,ir_finger,ir_toe
0,1046,657
5,1052,657
10,1064,661
15,1078,669
20,1079,669
25,1091,675
30,1095,681
35,1105,691
40,1117,691
45,1113,696
50,1125,706
55,1133,715
60,1144,711
65,1147,725
70,1156,731
75,1160,734
80,1164,740
85,1175,758
90,1168,754
95,1169,770
100,1174,770
105,1177,773
110,1173,785
115,1187,790
120,1177,804
125,1189,809
130,1177,814
135,1184,821
140,1183,825
145,1195,833
150,1187,838
155,1191,845
160,1195,845
165,1176,859
170,1185,862
175,1186,867
180,1185,877
185,1169,878
190,1172,887
195,1177,889
200,1172,891
205,1177,892
210,1166,900
215,1167,905
220,1167,907
225,1152,911
230,1147,913
235,1152,916
240,1156,920
245,1134,915
250,1146,919
255,1137,921
260,1134,922
265,1137,920
270,1128,923
275,1128,924
280,1125,922
285,1124,922
290,1118,920
295,1118,926
300,1116,926
305,1111,923
310,1110,926
315,1116,922
320,1105,916
325,1109,916
330,1106,922
335,1107,913
340,1103,913
345,1097,910
350,1092,909
355,1089,909
360,1086,910
365,1083,907
370,1095,901
375,1090,900
380,1086,899
385,1087,899
390,1080,894
395,1075,890
400,1072,891
405,1076,886
410,1060,885
415,1062,888
420,1059,882
425,1065,882
430,1067,881
435,1061,882
440,1041,876
445,1051,877
450,1039,870
455,1042,871
460,1037,870
465,1035,867
470,1028,866
475,1010,866
480,1011,868
485,1008,866
490,1003,862
495,1007,860
500,999,857
505,990,858
510,994,861
515,978,859
520,972,848
525,969,856
530,959,854
535,947,849
540,946,851
545,947,857
550,930,842
555,923,848
560,913,850
565,919,839
570,906,835
575,889,836
580,886,836
585,879,833
590,873,836
595,856,831
600,852,824
605,843,825
610,832,820
615,826,816
620,827,812
625,815,808
630,813,805
635,804,803
640,806,798
645,789,799
650,782,789
655,781,791
660,769,779
665,764,778
670,759,775
675,764,765
680,763,759
685,746,760
690,750,758
695,745,744
700,755,741
705,748,737
710,755,734
715,744,731
720,744,723
725,762,721
730,747,711
735,751,708
740,756,701
745,753,697
750,761,688
755,764,688
760,763,683
765,776,678
770,782,677
775,792,669
780,795,665
785,807,661
790,810,652
795,814,650
800,821,650
805,837,648
810,843,644
815,854,644
820,859,643
825,866,644
830,867,635
835,885,639
840,892,631
845,914,636
850,920,633
855,930,634
860,940,642
865,944,632
870,963,630
875,975,637
880,985,636
885,994,642
890,998,648
895,1014,651
900,1035,648
905,1040,648
910,1045,652
915,1056,656
920,1054,664
925,1069,665
930,1088,668
935,1096,673
940,1100,682
945,1106,685
950,1112,691
955,1124,700
960,1132,705
965,1130,709
970,1143,719
975,1148,724
980,1152,723
985,1154,737
990,1153,749
995,1167,752
1000,1170,760
1004,1182,763
1010,1177,776
1014,1182,780
1020,1185,787
1025,1178,791
1030,1186,794
1035,1189,806
1040,1178,812
1045,1185,819
1050,1195,829
1055,1177,831
1060,1186,840
1065,1177,848
1070,1195,853
1075,1180,856
1080,1184,865
1085,1187,866
1090,1183,872
1095,1177,878
1100,1180,883
1105,1168,893
1110,1174,892
1115,1158,901
1120,1167,903
1125,1166,909
1130,1163,904
1135,1154,906
1140,1153,914
1145,1161,909
1150,1149,915
1155,1144,916
1160,1143,921
1165,1137,926
1170,1130,921
1175,1130,924
1180,1125,925
1185,1132,925
1190,1132,923
1195,1127,923
1200,1130,930
1205,1116,923
1210,1106,925
1215,1106,923
1220,1118,919
1225,1114,926
1230,1111,921
1235,1105,917
1240,1098,917
1245,1098,911
1250,1102,913
1255,1096,913
1260,1103,907
1265,1090,911
1270,1087,905
1275,1073,903
1280,1086,902
1285,1081,900
1290,1092,906
1295,1075,898
1300,1086,897
1305,1077,893
1310,1083,890
1315,1076,889
1320,1062,891
1325,1072,886
1330,1068,879
1335,1066,881
1340,1064,876
1345,1060,880
1350,1058,874
1355,1053,874
1360,1042,872
1365,1050,870
1370,1031,868
1375,1034,868
1380,1028,867
1385,1027,866
1390,1024,869
1395,1004,866
1400,1000,863
1405,999,864
1410,993,863
1415,988,861
1420,996,857
1425,982,854
1430,967,857
1435,964,853
1440,962,852
1445,954,851
1450,940,846
1455,934,847
1460,928,850
1465,924,846
1470,908,843
1475,903,843
1480,901,835
1485,889,837
1490,876,833
1495,864,832
1500,860,829
1505,861,826
1510,854,831
1515,834,820
1520,836,822
1525,824,818
1530,817,814
1535,816,807
1540,809,804
1545,794,804
1550,795,792
1555,788,796
1560,779,791
1565,777,785
1570,783,777
1575,772,778
1580,761,773
1585,749,765
1590,755,768
1595,755,755
1600,747,754
1605,753,750
1610,745,747
1615,746,741
1620,749,730
1625,748,728
1630,751,727
1635,753,710
1640,752,712
1645,755,708
1650,748,701
1655,765,692
1660,758,687
1665,762,690
1670,769,683
1675,773,676
1680,777,677
1685,797,665
1690,795,661
1695,802,661
1700,808,656
1705,812,657
1710,821,654
1715,831,645
1720,843,646
1725,858,642
1730,860,637
1735,866,637
1740,874,635
1745,889,638
1750,896,632
1755,909,636
1760,926,636
1765,937,637
1770,934,634
1775,950,629
1780,963,635
1785,975,639
1790,988,643
1795,1000,640
1800,1006,642
1805,1014,643
1810,1024,648
1815,1043,650
1820,1047,656
1825,1055,660
1830,1060,661
1835,1073,668
1840,1084,676
1845,1094,682
1850,1100,687
1855,1110,694
1860,1115,697
1865,1131,700
1870,1133,709
1875,1122,716
1880,1151,722
1885,1155,724
1890,1162,734
1895,1170,735
1900,1167,745
1905,1172,757
1910,1170,759
1915,1181,769
1920,1183,768
1925,1177,786
1930,1193,789
1935,1189,800
1940,1188,807
1945,1185,813
1950,1192,816
1955,1192,824
1960,1190,835
1965,1189,836
1970,1188,845
1975,1186,846
1980,1185,857
1985,1180,858
1990,1182,866
1995,1188,871
2000,1176,869
2005,1183,881
2009,1167,882
2015,1175,888
2020,1175,896
2025,1169,899
2029,1167,897
2035,1161,901
2040,1165,910
2045,1156,911
2050,1157,911
2055,1148,914
2060,1149,919
2065,1143,921
2070,1136,918
2075,1135,916
2080,1132,921
2085,1142,925
2090,1132,926
2095,1129,927
2100,1132,924
2105,1116,926
2110,1114,925
2115,1117,925
2120,1120,926
2125,1115,922
2130,1114,922
2135,1111,918
2140,1103,917
2145,1107,916
2150,1103,913
2155,1092,913
2160,1088,908
2165,1096,908
2170,1093,910
2175,1088,909
2180,1095,900
2185,1088,902
2190,1080,902
2195,1092,897
2200,1093,898
2205,1081,897
2210,1077,896
2215,1075,892
2220,1082,885
2225,1067,886
2230,1070,888
2235,1065,885
2240,1059,879
2245,1061,878
2250,1069,878
2255,1056,880
2260,1054,876
2265,1043,874
2270,1045,877
2275,1048,871
2280,1037,872
2285,1035,869
2290,1025,866
2295,1020,868
2300,1022,870
2305,1013,869
2310,1011,865
2315,1000,861
2320,996,858
2325,986,862
2330,993,858
2335,980,860
2340,973,856
2345,956,854
2350,956,850
2355,945,853
2360,946,850
2365,933,851
2370,926,856
2375,908,841
2380,916,846
2385,898,842
2390,890,836
2395,881,836
2400,877,835
2405,870,833
2410,867,829
2415,859,827
2420,843,828
2425,847,819
2430,840,825
2435,816,813
2440,817,811
2445,809,814
2450,810,803
2455,804,804
2460,791,796
2465,793,796
2470,780,789
2475,777,782
2480,778,781
2485,774,779
2490,765,770
2495,751,763
2500,756,763
2505,754,758
2510,755,753
2515,750,748
2520,737,743
2525,747,734
2530,755,735
2535,761,723
2540,740,721
2545,751,715
2550,759,706
2555,762,702
2560,759,703
2565,760,694
2570,769,692
2575,759,686
2580,766,680
2585,774,678
2590,782,671
2595,791,667
2600,799,665
2605,794,665
2610,811,652
2615,812,657
2620,831,649
2625,838,642
2630,842,644
2635,846,644
2640,860,637
2645,872,633
2650,886,635
2655,888,633
2660,899,628
2665,915,635
2670,925,625
2675,943,635
2680,941,632
2685,942,631
2690,954,637
2695,973,635
2700,985,637
2705,994,637
2710,1002,650
2715,1018,648
2720,1034,648
2725,1034,649
2730,1048,657
2735,1051,656
2740,1073,667
2745,1082,664
2750,1077,677
2755,1089,675
2760,1106,679
2765,1109,685
2770,1121,690
2775,1125,699
2780,1132,708
2785,1133,715
2790,1144,722
2795,1145,727
2800,1150,731
2805,1153,741
2810,1169,749
2815,1168,755
2820,1181,764
2825,1173,767
2830,1176,773
2835,1169,782
2840,1186,792
2845,1183,801
2850,1193,806
2855,1182,811
2860,1185,814
2865,1185,818
2870,1187,833
2875,1182,839
2880,1188,845
2885,1184,852
2890,1188,857
2895,1177,860
2900,1183,864
2905,1172,869
2910,1175,877
2915,1180,884
2920,1179,885
2925,1173,890
2930,1172,893
2935,1166,904
2940,1161,899
2945,1157,901
2950,1161,903
2955,1163,912
2960,1159,915
2965,1155,907
2970,1145,915
2975,1150,918
2980,1144,920
2985,1128,918
2990,1136,918
2995,1134,928
3000,1127,923
3005,1136,926
3010,1115,925
3015,1125,931
3020,1134,928
3025,1125,922
3030,1114,930
3035,1110,919
3040,1113,921
3045,1105,924
3050,1108,924
3055,1108,915
3060,1110,911
3065,1102,917
3070,1096,914
3075,1099,911
3080,1095,911
3085,1086,910
3090,1098,902
3095,1082,907
3100,1089,897
3105,1083,898
3110,1088,900
3115,1077,893
3120,1077,897
3125,1076,893
3130,1078,890
3135,1070,888
3140,1071,883
3145,1070,889
3150,1058,882
3155,1057,879
3160,1062,882
3165,1053,879
3170,1048,875
3175,1053,873
3180,1052,869
3185,1036,877
3190,1034,869
3195,1021,872
3200,1026,867
3205,1016,871
3210,1013,868
3215,1015,869
3220,1003,862
3225,1001,862
3230,997,862
3235,986,864
3240,976,858
3245,974,848
3250,973,854
3255,962,854
3260,943,848
3265,942,854
3270,942,850
3275,932,851
3280,917,842
3285,914,845
3290,909,843
3295,904,836
3300,887,843
3305,879,845
3310,883,829
3315,876,831
3320,863,831
3325,865,827
3330,849,828
3335,842,820
3340,831,820
3345,826,816
3350,812,812
3355,814,809
3360,799,800
3365,794,796
3370,794,795
3375,789,794
3380,780,793
3385,771,782
3390,773,781
3395,759,771
3400,765,769
3405,757,769
3410,763,757
3415,749,755
3420,751,748
3425,752,745
3430,748,737
3435,743,733
3440,748,729
3445,749,726
3450,749,718
3455,753,718
3460,757,704
3465,747,703
3470,758,705
3475,764,702
3480,759,689
3485,762,685
3490,782,682
3495,776,675
3500,786,668
3505,787,667
3510,799,663
3515,798,661
3520,812,656
3525,821,659
3530,831,654
3535,832,649
3540,849,646
3545,852,640
3550,864,640
3555,878,631
3560,882,637
3565,883,631
3570,903,636
3575,916,626
3580,929,632
3585,939,639
3590,943,631
3595,961,630
3600,960,638
3605,983,638
3610,988,639
3615,994,640
3620,1006,642
3625,1028,644
3630,1026,655
3635,1040,652
3640,1058,656
3645,1051,658
3650,1076,667
3655,1070,675
3660,1089,674
3665,1095,682
3670,1102,685
3675,1115,688
3680,1116,696
3685,1133,702
3690,1137,708
3695,1135,706
3700,1144,723
3705,1148,727
3710,1166,733
3715,1161,738
3720,1161,753
3725,1164,754
3730,1172,762
3735,1176,768
3740,1178,776
3745,1173,782
3750,1183,794
3755,1188,796
3760,1184,808
3765,1188,809
3770,1186,817
3775,1188,822
3780,1192,835
3785,1193,837
3790,1196,841
3795,1182,850
3800,1183,859
3805,1177,857
3810,1184,868
3815,1180,874
3820,1178,878
3825,1179,878
3830,1173,884
3835,1163,889
3840,1173,891
3845,1172,900
3850,1162,899
3855,1163,911
3860,1152,909
3865,1159,907
3870,1158,912
3875,1140,914
3880,1144,919
3885,1144,918
3890,1135,925
3895,1144,918
3900,1137,921
3905,1132,922
3910,1134,923
3915,1126,925
3920,1118,925
3925,1119,924
3930,1129,924
3935,1116,926
3940,1113,923
3945,1119,924
3950,1119,923
3955,1108,915
3960,1115,914
3965,1107,915
3970,1092,915
3975,1091,912
3980,1101,912
3985,1099,908
3990,1094,906
3995,1095,909
4000,1087,908
4005,1090,900
4010,1083,903
4014,1076,908
4019,1088,896
4025,1075,892
4030,1080,895
4035,1074,890
4040,1073,888
4045,1071,885
4050,1069,887
4054,1066,888
4059,1064,887
4065,1061,883
4070,1061,878
4075,1050,877
4080,1044,879
4085,1042,882
4090,1042,877
4094,1032,868
4100,1027,875
4105,1033,870
4110,1017,864
4115,1019,870
4120,1018,863
4125,1016,863
4130,1012,862
4135,998,861
4140,997,859
4145,989,854
4150,980,858
4155,974,861
4160,959,857
4165,967,853
4170,951,847
4175,946,852
4180,945,851
4185,929,848
4190,919,844
4195,907,846
4200,902,848
4205,900,840
4210,888,840
4215,878,837
4220,879,833
4225,866,828
4230,862,830
4235,863,828
4240,838,820
4245,840,825
4250,832,825
4255,824,810
4260,820,816
4265,817,809
4270,812,806
4275,797,800
4280,785,798
4285,779,789
4290,781,788
4295,770,787
4300,766,782
4305,768,774
4310,762,764
4315,752,762
4320,758,768
4325,756,758
4330,759,757
4335,754,751
4340,743,738
4345,747,731
4350,752,727
4355,745,724
4360,753,725
4365,745,710
4370,748,711
4375,761,706
4380,753,693
4385,754,698
4390,764,689
4395,772,683
4400,772,675
4405,770,669
4410,796,671
4415,793,666
4420,808,665
4425,792,660
4430,818,656
4435,822,648
4440,826,648
4445,842,647
4450,849,645
4455,847,639
4460,868,634
4465,860,633
4470,885,632
4475,892,638
4480,912,634
4485,922,638
4490,925,632
4495,937,638
4500,938,633
4505,954,629
4510,963,642
4515,982,642
4520,989,640
4525,1010,642
4530,1012,648
4535,1024,642
4540,1032,647
4545,1032,650
4550,1043,653
4555,1050,661
4560,1068,666
4565,1082,673
4570,1085,681
4575,1099,678
4580,1104,685
4585,1118,689
4590,1118,694
4595,1139,701
4600,1133,707
4605,1137,711
4610,1140,721
4615,1148,726
4620,1149,738
4625,1167,745
4630,1168,752
4635,1179,763
4640,1166,761
4645,1183,765
4650,1182,778
4655,1177,777
4660,1186,794
4665,1186,798
4670,1192,808
4675,1193,816
4680,1188,821
4685,1186,823
4690,1189,836
4695,1180,837
4700,1190,843
4705,1179,854
4710,1182,852
4715,1184,865
4720,1184,865
4725,1182,871
4730,1178,876
4735,1180,883
4740,1177,888
4745,1174,892
4750,1173,895
4755,1160,898
4760,1165,906
4765,1162,910
4770,1145,908
4775,1157,914
4780,1157,912
4785,1144,916
4790,1146,918
4795,1141,919
4800,1135,919
4805,1139,923
4810,1138,921
4815,1141,925
4820,1128,922
4825,1135,925
4830,1121,923
4835,1120,924
4840,1121,926
4845,1109,922
4850,1112,925
4855,1119,924
4860,1111,924
4865,1102,920
4870,1102,919
4875,1110,917
4880,1101,914
4885,1099,917
4890,1101,909
4895,1099,914
4900,1103,907
4905,1093,907
4910,1089,911
4915,1074,904
4920,1089,900
4925,1093,897
4930,1087,898
4935,1080,898
4940,1083,892
4945,1073,893
4950,1075,890
4955,1075,883
4960,1062,881
4965,1068,888
4970,1062,879
4975,1050,876
4980,1059,878
4985,1059,879
4990,1056,873
4995,1041,880
5000,1044,874
5005,1036,872
5010,1035,870
5015,1029,870
5020,1017,872
5025,1019,863
5030,1019,864
5035,1009,861
5040,1007,864
5045,1004,854
5050,995,856
5055,984,861
5060,987,862
5065,970,860
5070,973,856
5075,960,855
5080,951,851
5085,951,850
5090,935,849
5095,926,846
5100,928,841
5105,908,842
5110,907,837
5115,891,843
5120,901,841
5125,890,836
5130,880,835
5135,873,827
5140,861,829
5145,849,830
5150,839,822
5155,842,817
5160,840,819
5165,824,809
5170,812,809
5175,805,805
5180,801,810
5185,787,796
5190,792,794
5195,779,792
5200,779,786
5205,770,783
5210,779,777
5215,751,775
5220,765,769
5225,761,765
5230,762,764
5235,751,754
5240,749,750
5245,754,744
5250,749,741
5255,748,726
5260,744,725
5265,745,722
5270,761,719
5275,749,713
5280,758,705
5285,757,703
5290,755,696
5295,763,697
5300,761,685
5305,767,679
5310,771,678
5315,779,673
5320,786,675
5325,791,666
5330,801,661
5335,798,661
5340,813,657
5345,820,651
5350,831,654
5355,841,644
5360,849,648
5365,858,639
5370,869,635
5375,873,641
5380,886,641
5385,889,637
5390,910,633
5395,916,633
5400,929,634
5405,933,631
5410,940,629
5415,948,635
5420,971,635
5425,982,641
5430,994,641
5435,999,642
5440,1007,643
5445,1018,640
5450,1034,648
5455,1057,656
5460,1049,656
5465,1052,663
5470,1068,670
5475,1068,671
5480,1090,683
5485,1092,682
5490,1100,683
5495,1110,694
5500,1115,700
5505,1122,707
5510,1145,705
5515,1143,717
5520,1142,723
5525,1147,732
5530,1151,737
5535,1161,736
5540,1160,748
5545,1173,757
5550,1165,768
5555,1178,774
5560,1181,779
5565,1170,787
5570,1185,798
5575,1181,805
5580,1187,803
5585,1195,814
5590,1185,824
5595,1185,826
5600,1184,836
5605,1183,841
5610,1187,842
5615,1187,850
5620,1184,857
5625,1176,865
5630,1187,868
5635,1183,873
5640,1180,877
5645,1183,878
5650,1176,886
5655,1168,889
5660,1171,896
5665,1160,900
5670,1169,902
5675,1164,904
5680,1162,910
5685,1157,910
5690,1156,912
5695,1164,912
5700,1148,916
5705,1147,923
5710,1139,920
5715,1134,925
5720,1129,917
5725,1132,922
5730,1124,923
5735,1124,931
5740,1118,924
5745,1125,927
5750,1130,923
5755,1119,921
5760,1113,923
5765,1109,923
5770,1105,922
5775,1106,918
5780,1111,924
5785,1099,917
5790,1104,915
5795,1105,915
5800,1104,909
5805,1102,911
5810,1091,902
5815,1092,902
5820,1092,901
5825,1086,903
5830,1095,903
5835,1092,899
5840,1082,896
5845,1087,903
5850,1072,893
5855,1077,886
5860,1062,896
5865,1071,888
5870,1063,887
5875,1065,876
5880,1062,885
5885,1059,881
5890,1051,876
5895,1048,877
5900,1044,877
5905,1051,874
5910,1043,869
5915,1038,865
5920,1031,863
5925,1031,872
5930,1019,865
5935,1018,870
5940,1010,870
5945,1004,868
5950,995,865
5955,997,861
5960,974,859
5965,988,859
5970,973,857
5975,975,859
5980,961,857
5985,965,854
5990,950,856
5995,939,845
6000,932,852
6005,934,845
6010,925,844
6015,909,849
6020,905,839
6025,906,837
6030,896,836
6035,882,837
6040,883,829
6045,866,830
6050,867,830
6055,857,825
6060,842,822
6065,828,821
6070,824,814
6075,820,810
6080,819,815
6085,804,804
6090,799,803
6095,790,797
6100,784,789
6105,786,787
6110,774,786
6115,772,781
6120,772,780
6125,764,774
6130,768,773
6135,759,763
6140,746,753
6145,752,755
6150,752,748
6155,747,744
6160,745,734
6165,745,732
6170,743,722
6175,751,723
6180,749,717
6185,751,714
6190,738,702
6195,750,706
6200,748,698
6205,758,691
6210,765,686
6215,770,683
6220,764,681
6225,778,674
6230,787,674
6235,789,662
6240,799,665
6245,798,655
6250,815,651
6255,835,653
6260,837,645
6265,840,648
6270,850,639
6275,857,639
6280,861,638
6285,884,636
6290,895,636
6295,893,628
6300,914,633
6305,908,634
6310,934,633
6315,944,632
6320,955,631
6325,959,633
6330,970,637
6335,982,633
6340,982,639
6345,1003,640
6350,1010,645
6355,1015,651
6360,1028,648
6365,1046,656
6370,1054,661
6375,1064,668
6380,1075,662
6385,1078,671
6390,1084,680
6395,1097,686
6400,1107,690
6405,1102,700
6410,1122,697
6415,1134,704
6420,1140,708
6425,1124,720
6430,1150,724
6435,1158,723
6440,1143,738
6445,1158,743
6450,1167,752
6455,1171,759
6460,1169,766
6465,1181,769
6470,1179,779
6475,1182,788
6480,1192,793
6485,1189,805
6490,1178,811
6495,1185,813
6500,1198,828
6505,1189,830
6510,1187,830
6515,1194,840
6520,1184,849
6525,1185,852
6530,1187,861
6535,1168,858
6540,1177,868
6545,1176,877
6550,1170,874
6555,1172,887
6560,1171,885
6565,1173,891
6570,1169,893
6575,1166,901
6580,1164,901
6585,1155,913
6590,1163,909
6595,1148,912
6600,1162,909
6605,1141,918
6610,1141,915
6615,1145,921
6620,1135,921
6625,1136,923
6630,1140,928
6635,1130,921
6640,1132,917
6645,1128,924
6650,1114,925
6655,1121,924
6660,1115,925
6665,1115,923
6670,1114,921
6675,1117,920
6680,1108,921
6685,1111,917
6690,1110,916
6695,1099,915
6700,1102,916
6705,1097,910
6710,1094,912
6715,1100,915
6720,1083,908
6725,1093,901
6730,1086,908
6735,1093,904
6740,1075,895
6745,1075,900
6750,1082,891
6755,1081,896
6760,1082,896
6765,1081,891
6770,1071,885
6775,1074,888
6780,1069,887
6785,1071,886
6790,1074,889
6795,1064,880
6800,1051,877
6805,1059,878
6810,1052,879
6815,1040,868
6820,1039,870
6825,1036,870
6830,1035,874
6835,1030,871
6840,1021,864
6845,1014,866
6850,1014,866
6855,1009,867
6860,1002,863
6865,995,866
6870,995,859
6875,995,857
6880,977,857
6885,966,852
6890,965,857
6895,962,851
6900,941,852
6905,952,856
6910,937,850
6915,918,847
6920,909,844
6925,900,850
6930,897,847
6935,885,839
6940,895,841
6945,886,836
6950,880,836
6955,862,836
6960,854,830
6965,850,822
6970,835,821
6975,827,823
6980,824,818
6985,827,812
6990,813,809
6995,811,808
7000,804,802
7005,809,803
7010,785,793
7015,786,794
7020,781,785
7025,774,778
7030,772,780
7035,769,771
7040,760,771
7045,761,766
7050,743,762
7055,750,754
7060,748,743
7065,749,745
7070,743,737
7075,747,738
7080,760,736
7085,743,725
7090,745,718
7095,747,713
7100,760,705
7105,761,703
7110,760,694
7115,764,687
7120,764,688
7125,776,682
7130,776,675
7135,782,676
7140,779,669
7145,797,667
7150,801,656
7155,800,660
7160,817,653
7165,819,652
7170,839,646
7175,837,642
7180,847,640
7185,853,638
7190,874,640
7195,887,635
7200,887,634
7205,892,632
7210,912,634
7215,922,629
7220,927,636
7225,938,637
7230,947,631
7235,968,637
7240,975,638
7245,985,640
7250,995,639
7255,1009,641
7260,1020,643
7265,1029,646
7270,1030,650
7275,1044,652
7280,1054,660
7285,1066,667
7290,1080,666
7295,1084,670
7300,1089,671
7305,1102,680
7310,1107,692
7315,1121,696
7320,1119,705
7325,1134,709
7330,1131,713
7335,1143,717
7340,1150,724
7345,1154,730
7350,1165,736
7355,1162,749
7360,1171,756
7365,1172,760
7370,1167,763
7375,1172,773
7380,1180,782
7385,1191,787
7390,1183,800
7395,1180,803
7400,1192,808
7405,1195,815
7410,1185,823
7415,1189,825
7420,1190,832
7425,1189,842
7430,1183,850
7435,1185,850
7440,1180,859
7445,1187,864
7450,1178,863
7455,1174,871
7460,1175,880
7465,1174,893
7470,1169,887
7475,1176,893
7480,1172,900
7485,1161,900
7490,1159,903
7495,1165,905
7500,1160,910
7505,1152,913
7510,1139,915
7515,1144,912
7520,1143,917
7525,1150,916
7530,1136,923
7535,1139,921
7540,1132,922
7545,1133,925
7550,1132,922
7555,1126,922
7560,1123,924
7565,1118,928
7570,1117,921
7575,1114,921
7580,1116,922
7585,1118,925
7590,1106,916
7595,1103,917
7600,1107,915
7605,1097,916
7610,1101,913
7615,1097,916
7620,1093,912
7625,1104,910
7630,1089,905
7635,1093,906
7640,1087,904
7645,1086,901
7650,1086,902
7655,1086,901
7660,1084,898
7665,1082,897
7670,1077,895
7675,1074,894
7680,1079,890
7685,1064,881
7690,1072,885
7695,1076,888
7700,1063,880
7705,1061,875
7710,1060,882
7715,1055,876
7720,1049,874
7725,1041,873
7730,1040,872
7735,1031,871
7740,1034,874
7745,1034,870
7750,1016,869
7755,1022,866
7760,1016,863
7765,1008,860
7770,994,861
7775,987,862
7780,992,861
7785,992,857
7790,975,861
7795,972,855
7800,959,857
7805,962,858
7810,958,850
7815,947,853
7820,936,845
7825,922,845
7830,912,848
7835,906,846
7840,892,843
7845,900,838
7850,884,834
7855,884,832
7860,872,834
7865,865,827
7870,855,825
7875,843,824
7880,840,826
7885,838,817
7890,830,820
7895,819,814
7900,821,810
7905,803,806
7910,808,807
7915,787,801
7920,789,795
7925,784,791
7930,780,786
7935,770,782
7940,772,778
7945,766,773
7950,767,762
7955,750,759
7960,753,759
7965,759,749
7970,749,749
7975,745,740
7980,745,736
7985,743,741
7990,746,728
7995,751,724
8000,745,719
8005,751,709
8010,763,707
8015,750,702
8020,767,694
8025,756,688
8029,767,685
8035,777,686
8039,775,679
8045,792,674
8050,780,669
8055,799,664
8060,806,657
8064,813,655
8070,815,657
8074,824,648
8080,837,654
8085,846,644
8090,860,635
8095,854,636
8100,869,635
8105,888,638
8109,888,634
8115,898,635
8119,911,632
8125,917,635
8130,924,636
8135,946,630
8140,960,634
8145,965,639
8150,977,635
8154,978,636
8160,993,637
8164,1012,641
8170,1009,642
8175,1027,645
8180,1039,650
8185,1054,657
8189,1056,663
8195,1063,666
8200,1078,666
8205,1090,674
8210,1084,673
8215,1102,686
8220,1108,690
8225,1110,698
8230,1129,701
8235,1126,703
8240,1131,719
8245,1140,725
8250,1148,727
8255,1150,735
8260,1157,743
8265,1157,744
8270,1173,756
8275,1175,761
8280,1173,770
8285,1176,767
8290,1193,780
8295,1180,784
8300,1187,794
8305,1187,803
8310,1183,809
8315,1188,818
8320,1184,821
8325,1186,827
8330,1185,834
8335,1199,839
8340,1192,847
8345,1189,856
8350,1182,854
8355,1188,869
8360,1183,876
8365,1176,873
8370,1166,883
8375,1174,890
8380,1177,890
8385,1170,888
8390,1173,895
8395,1159,903
8400,1160,903
8405,1159,908
8410,1151,911
8415,1154,912
8420,1156,914
8425,1162,916
8430,1150,920
8435,1141,915
8440,1133,924
8445,1134,922
8450,1126,921
8455,1135,929
8460,1130,920
8465,1113,922
8470,1120,923
8475,1129,922
8480,1115,924
8485,1110,924
8490,1115,919
8495,1106,921
8500,1107,926
8505,1119,924
8510,1099,917
8515,1097,916
8520,1102,913
8525,1087,914
8530,1094,904
8535,1085,912
8540,1095,912
8545,1094,902
8550,1087,903
8555,1082,896
8560,1078,901
8565,1088,895
8570,1086,899
8575,1079,895
8580,1080,888
8585,1075,886
8590,1077,894
8595,1062,883
8600,1072,884
8605,1071,882
8610,1068,881
8615,1055,882
8620,1058,878
8625,1058,875
8630,1048,875
8635,1046,873
8640,1038,873
8645,1040,869
8650,1031,871
8655,1027,863
8660,1024,870
8665,1016,862
8670,1021,864
8675,1002,859
8680,1007,861
8685,993,863
8690,993,859
8695,978,857
8700,973,858
8705,975,855
8710,954,856
8715,953,852
8720,950,852
8725,937,848
8730,939,851
8735,931,852
8740,915,840
8745,912,841
8750,900,837
8755,895,840
8760,887,834
8765,875,828
8770,861,834
8775,866,824
8780,846,820
8785,852,820
8790,843,821
8795,835,819
8800,824,808
8805,815,812
8810,802,809
8815,810,810
8820,797,801
8825,785,790
8830,775,795
8835,775,786
8840,787,786
8845,766,782
8850,768,774
8855,762,772
8860,756,773
8865,772,754
8870,750,753
8875,751,754
8880,744,745
8885,741,742
8890,747,735
8895,747,728
8900,752,727
8905,751,715
8910,754,716
8915,761,710
8920,754,707
8925,750,701
8930,765,695
8935,765,694
8940,773,686
8945,773,675
8950,781,673
8955,776,674
8960,793,669
8965,794,662
8970,805,655
8975,812,656
8980,818,652
8985,831,648
8990,841,645
8995,842,643
9000,852,639
9005,857,635
9010,874,633
9015,887,638
9020,898,638
9025,904,633
9030,916,627
9035,914,630
9040,929,634
9045,945,634
9050,948,629
9055,959,636
9060,981,639
9065,981,640
9070,998,641
9075,1008,642
9080,1025,649
9085,1028,653
9090,1042,654
9095,1046,654
9100,1058,659
9105,1074,666
9110,1079,668
9115,1084,676
9120,1101,681
9125,1109,682
9130,1102,689
9135,1116,697
9140,1119,702
9145,1138,709
9150,1140,713
9155,1143,719
9160,1151,735
9165,1155,735
9170,1159,744
9175,1163,748
9180,1176,763
9185,1166,758
9190,1180,764
9195,1174,774
9200,1176,782
9205,1185,788
9210,1186,797
9215,1173,805
9220,1182,809
9225,1184,811
9230,1184,818
9235,1187,825
9240,1189,840
9245,1185,841
9250,1190,850
9255,1194,858
9260,1177,857
9265,1180,865
9270,1175,870
9275,1174,875
9280,1171,886
9285,1183,890
9290,1164,892
9295,1171,898
9300,1166,899
9305,1158,902
9310,1160,901
9315,1162,905
9320,1157,911
9325,1152,913
9330,1147,912
9335,1146,913
9340,1146,920
9345,1141,917
9350,1136,923
9355,1145,923
9360,1138,923
9365,1131,926
9370,1129,923
9375,1124,921
9380,1122,925
9385,1124,918
9390,1118,919
9395,1118,922
9400,1107,923
9405,1110,922
9410,1106,918
9415,1114,921
9420,1105,917
9425,1101,921
9430,1110,913
9435,1103,914
9440,1090,907
9445,1094,912
9450,1095,903
9455,1089,909
9460,1087,903
9465,1086,901
9470,1089,901
9475,1083,894
9480,1075,896
9485,1082,897
9490,1082,892
9495,1073,885
9500,1074,892
9505,1071,888
9510,1072,889
9515,1059,880
9520,1062,881
9525,1067,875
9530,1049,882
9535,1058,876
9540,1046,868
9545,1052,878
9550,1047,870
9555,1038,872
9560,1030,869
9565,1019,864
9570,1018,868
9575,1016,865
9580,1018,864
9585,1007,860
9590,995,865
9595,997,862
9600,980,860
9605,981,856
9610,982,854
9615,969,859
9620,961,851
9625,946,850
9630,943,853
9635,944,852
9640,925,851
9645,930,841
9650,918,845
9655,911,843
9660,910,846
9665,889,837
9670,880,838
9675,883,832
9680,865,832
9685,866,828
9690,856,827
9695,841,822
9700,830,827
9705,824,822
9710,824,814
9715,815,813
9720,814,805
9725,793,806
9730,794,798
9735,794,797
9740,784,789
9745,777,784
9750,772,786
9755,759,780
9760,769,774
9765,757,770
9770,761,761
9775,760,759
9780,761,755
9785,748,749
9790,751,746
9795,744,736
9800,749,739
9805,749,730
9810,745,719
9815,744,722
9820,743,716
9825,755,709
9830,760,706
9835,743,703
9840,757,696
9845,772,685
9850,760,684
9855,771,679
9860,782,676
9865,785,670
9870,795,673
9875,798,663
9880,811,655
9885,817,656
9890,814,655
9895,829,652
9900,823,646
9905,845,641
9910,856,636
9915,877,642
9920,873,639
9925,884,638
9930,891,635
9935,905,633
9940,903,635
9945,928,635
9950,943,634
9955,950,637
9960,959,632
9965,960,640
9970,974,635
9975,992,638
9980,992,643
9985,1011,641
9990,1020,648
9995,1025,649
10000,1040,648
10005,1051,651
10010,1064,661
10015,1070,667
10020,1075,669
10025,1087,676
10030,1096,681
10035,1098,689
10040,1108,686
10045,1114,693
10050,1135,705
10055,1125,712
10060,1138,718
10065,1140,726
10070,1153,728
10075,1149,732
10080,1173,740
10085,1168,748
10090,1171,758
10095,1179,765
10100,1170,777
10105,1175,773
10110,1173,789
10115,1186,793
10120,1181,798
10125,1181,804
10130,1193,818
10135,1193,819
10140,1182,821
10145,1186,835
10150,1189,838
10155,1178,847
10160,1193,849
10165,1175,849
10170,1189,862
10175,1183,868
10180,1184,872
10185,1182,878
10190,1180,887
10195,1174,882
10200,1179,890
10205,1176,890
10210,1157,897
10215,1166,904
10220,1157,908
10225,1154,905
10230,1155,910
10235,1149,916
10240,1154,917
10245,1156,922
10250,1137,922
10255,1139,925
10260,1137,919
10265,1134,924
10270,1143,920
10275,1130,926
10280,1129,922
10285,1126,925
10290,1126,925
10295,1125,923
10300,1130,924
10305,1106,927
10310,1117,922
10315,1105,920
10320,1106,921
10325,1110,916
10330,1110,918
10335,1095,918
10340,1097,910
10345,1099,909
10350,1103,904
10355,1100,910
10360,1084,903
10365,1090,906
10370,1093,902
10375,1093,901
10380,1078,896
10385,1086,895
10390,1085,894
10395,1076,897
10400,1077,895
10405,1083,890
10410,1071,885
10415,1066,881
10420,1066,886
10425,1062,884
10430,1065,880
10435,1059,878
10440,1051,881
10445,1052,876
10450,1037,880
10455,1044,869
10460,1047,866
10465,1038,872
10470,1025,872
10475,1022,864
10480,1020,865
10485,1016,863
10490,1011,868
10495,1005,865
10500,996,861
10505,995,854
10510,988,858
10515,983,860
10520,966,852
10525,961,863
10530,960,854
10535,952,855
10540,954,847
10545,939,847
10550,939,844
10555,924,843
10560,924,849
10565,903,842
10570,904,837
10575,892,833
10580,883,834
10585,874,831
10590,865,831
10595,865,830
10600,846,827
10605,838,822
10610,839,822
10615,835,820
10620,822,813
10625,809,810
10630,810,810
10635,800,806
10640,794,800
10645,786,794
10650,787,788
10655,775,787
10660,773,785
10665,772,779
10670,768,775
10675,770,772
10680,751,765
10685,752,761
10690,748,758
10695,752,746
10700,746,748
10705,739,745
10710,742,733
10715,737,729
10720,747,718
10725,746,713
10730,753,715
10735,754,710
10740,753,702
10745,756,701
10750,764,696
10755,768,689
10760,772,687
10765,772,681
10770,784,677
10775,791,669
10780,793,666
10785,794,660
10790,807,660
10795,816,656
10800,823,650
10805,829,649
10810,838,644
10815,850,641
10820,853,638
10825,862,640
10830,869,635
10835,894,636
10840,901,635
10845,906,633
10850,921,638
10855,936,639
10860,936,630
10865,946,637
10870,964,631
10875,968,634
10880,974,637
10885,986,639
10890,996,641
10895,1014,642
10900,1018,642
10905,1030,647
10910,1042,656
10915,1047,662
10920,1067,660
10925,1074,665
10930,1073,670
10935,1092,683
10940,1102,683
10945,1104,684
10950,1110,694
10955,1112,692
10960,1112,702
10965,1131,711
10970,1136,721
10975,1150,723
10980,1156,728
10985,1160,732
10990,1152,740
10995,1163,749
11000,1172,757
11005,1171,765
11010,1174,772
11015,1176,780
11020,1175,791
11025,1188,790
11030,1185,799
11035,1193,803
11040,1181,810
11045,1189,824
11050,1190,828
11055,1184,828
11060,1187,839
11065,1191,843
11070,1178,853
11075,1187,858
11080,1185,866
11085,1183,865
11090,1180,868
11095,1183,881
11100,1184,881
11105,1168,884
11110,1172,888
11115,1167,896
11120,1166,900
11125,1172,909
11130,1155,903
11135,1162,910
11140,1155,918
11145,1162,910
11150,1150,918
11155,1146,917
11160,1137,920
11165,1138,920
11170,1140,924
11175,1132,921
11180,1133,926
11185,1135,918
11190,1130,923
11195,1125,924
11200,1122,926
11205,1121,925
11210,1121,920
11215,1109,918
11220,1107,927
11225,1111,918
11230,1106,921
11235,1104,918
11240,1105,916
11245,1099,913
11250,1086,917
11255,1094,916
11260,1091,921
11265,1097,909
11270,1098,906
11275,1082,904
11280,1090,906
11285,1084,896
11290,1086,906
11295,1088,900
11300,1074,898
11305,1081,891
11310,1076,894
11315,1073,886
11320,1072,886
11325,1058,884
11330,1064,883
11335,1068,884
11340,1057,877
11345,1057,881
11350,1044,876
11355,1053,875
11360,1057,876
11365,1042,875
11370,1035,871
11375,1034,865
11380,1031,870
11385,1018,865
11390,1018,870
11395,1010,865
11400,1011,864
11405,1003,859
11410,1000,860
11415,994,858
11420,985,856
11425,987,853
11430,969,856
11435,970,854
11440,966,854
11445,948,851
11450,942,849
11455,942,844
11460,932,851
11465,915,847
11470,912,843
11475,903,843
11480,895,842
11485,894,834
11490,890,838
11495,872,830
11500,868,831
11505,859,822
11510,855,828
11515,848,824
11520,834,818
11525,827,816
11530,833,815
11535,811,806
11540,802,801
11545,795,801
11550,799,797
11555,793,797
11560,787,788
11565,774,786
11570,780,780
11575,768,777
11580,765,775
11585,765,769
11590,761,763
11595,756,760
11600,765,755
11605,750,753
11610,755,745
11615,747,737
11620,752,736
11625,744,729
11630,748,722
11635,759,719
11640,755,713
11645,753,711
11650,755,703
11655,756,698
11660,753,693
11665,765,688
11670,769,680
11675,775,681
11680,780,677
11685,801,675
11690,782,666
11695,798,669
11700,812,660
11705,815,654
11710,818,650
11715,832,652
11720,841,654
11725,857,642
11730,863,644
11735,870,639
11740,876,633
11745,880,635
11750,898,637
11755,901,632
11760,915,636
11765,928,625
11770,941,632
11775,948,632
11780,960,632
11785,970,638
11790,988,639
11795,988,641
11800,1006,641
11805,1015,643
11810,1016,650
11815,1027,656
11820,1040,657
11825,1055,655
11830,1059,659
11835,1082,667
11840,1074,675
11845,1088,676
11850,1088,682
11855,1099,689
11860,1111,695
11865,1121,703
11870,1125,708
11875,1130,710
11880,1138,719
11885,1145,724
11890,1155,733
11895,1152,736
11900,1162,742
11905,1166,751
11910,1170,754
11915,1171,770
11920,1180,775
11925,1171,781
11930,1179,783
11935,1185,801
11940,1187,802
11945,1181,806
11950,1193,816
11955,1188,819
11960,1183,831
11965,1185,830
11970,1183,839
11975,1182,844
11980,1186,851
11985,1192,860
11990,1185,865
11995,1178,865
12000,1187,873
12005,1173,880
12010,1176,880
12015,1183,893
12020,1165,889
12025,1170,898
12030,1175,900
12035,1162,905
12040,1165,909
12045,1158,909
12050,1155,906
12055,1156,913
12060,1158,917
12065,1147,915
12070,1143,918
12075,1136,920
12080,1143,925
12085,1142,918
12090,1124,927
12095,1125,924
12100,1126,921
12105,1127,921
12110,1118,923
12115,1124,923
12120,1118,924
12125,1114,915
12130,1101,921
12135,1113,925
12140,1118,916
12145,1106,918
12150,1103,923
12155,1094,918
12160,1093,917
12165,1093,908
12170,1100,904
12175,1098,913
12180,1094,908
12185,1083,900
12190,1086,905
12195,1088,901
12200,1085,900
12205,1084,896
12210,1081,895
12215,1088,899
12220,1075,897
12225,1073,890
12230,1073,886
12235,1070,886
12240,1066,882
12245,1065,880
12250,1055,879
12255,1057,880
12260,1055,879
12265,1054,876
12270,1048,874
12275,1050,874
12280,1050,870
12285,1030,867
12290,1028,868
12295,1017,864
12300,1026,860
12305,1011,861
12310,1007,867
12315,1002,866
12320,998,858
12325,995,863
12330,979,858
12335,984,862
12340,980,860
12345,961,861
12350,958,858
12355,944,850
12360,950,852
12365,938,847
12370,924,847
12375,919,844
12380,909,845
12385,910,841
12390,894,845
12395,883,840
12400,886,838
12405,874,833
12410,863,831
12415,849,835
12420,855,826
12425,841,825
12430,839,825
12435,829,816
12440,815,814
12445,811,815
12450,812,809
12455,794,799
12460,784,794
12465,789,793
12470,783,790
12475,780,789
12480,771,781
12485,767,775
12490,764,771
12495,770,765
12500,757,761
12505,752,757
12510,751,749
12515,762,750
12520,753,739
12525,750,733
12530,743,734
12535,753,727
12540,751,720
12545,750,716
12550,748,711
12555,754,708
12560,756,701
12565,767,694
12570,765,687
12575,769,681
12580,769,683
12585,775,676
12590,775,678
12595,788,672
12600,791,669
12605,804,659
12610,809,660
12615,820,654
12620,823,656
12625,835,648
12630,846,642
12635,848,645
12640,858,641
12645,865,635
12650,875,632
12655,894,640
12660,893,636
12665,915,634
12670,909,634
12675,923,636
12680,949,630
12685,945,630
12690,958,633
12695,965,635
12700,986,640
12705,996,643
12710,1009,644
12715,1004,644
12720,1026,647
12725,1036,649
12730,1040,650
12735,1063,655
12740,1067,663
12745,1059,674
12750,1082,673
12755,1084,680
12760,1091,679
12765,1112,688
12770,1113,689
12775,1123,697
12780,1127,707
12785,1131,706
12790,1142,712
12795,1158,727
12800,1162,730
12805,1160,740
12810,1149,748
12815,1177,752
12820,1176,763
12825,1181,763
12830,1183,772
12835,1166,782
12840,1184,787
12845,1184,789
12850,1181,800
12855,1190,812
12860,1190,808
12865,1189,821
12870,1195,829
12875,1183,837
12880,1194,840
12885,1187,850
12890,1190,853
12895,1184,862
12900,1194,859
12905,1187,863
12910,1177,874
12915,1181,880
12920,1167,891
12925,1183,885
12930,1173,891
12935,1170,885
12940,1170,901
12945,1169,902
12950,1164,911
12955,1158,909
12960,1168,913
12965,1148,914
12970,1140,911
12975,1148,920
12980,1143,924
12985,1141,923
12990,1131,924
12995,1130,921
13000,1129,924
13005,1127,924
13010,1131,930
13015,1130,925
13020,1128,916
13025,1126,922
13030,1106,923
13035,1119,923
13040,1110,920
13045,1108,915
13050,1112,916
13055,1100,915
13060,1104,916
13065,1099,915
13070,1099,914
13075,1096,913
13080,1092,908
13085,1104,909
13090,1091,904
13095,1087,902
13100,1097,901
13105,1092,894
13110,1084,894
13115,1086,898
13120,1069,893
13125,1078,885
13130,1080,887
13135,1072,893
13140,1078,888
13145,1069,885
13150,1069,878
13155,1060,878
13160,1062,880
13165,1051,879
13170,1046,877
13175,1041,874
13180,1048,870
13185,1057,867
13190,1034,868
13195,1036,864
13200,1035,870
13205,1026,871
13210,1020,864
13215,1011,860
13220,1006,866
13225,1005,864
13230,999,864
13235,994,864
13240,986,858
13245,971,856
13250,973,854
13255,962,850
13260,957,853
13265,953,850
13270,945,852
13275,928,848
13280,931,849
13285,917,848
13290,907,845
13295,899,842
13300,892,842
13305,881,838
13310,876,834
13315,863,828
13320,863,832
13325,856,824
13330,856,827
13335,837,822
13340,833,822
13345,831,815
13350,817,814
13355,810,810
13360,800,809
13365,808,798
13370,802,793
13375,781,791
13380,784,785
13385,766,786
13390,768,781
13395,765,777
13400,761,770
13405,760,770
13410,755,770
13415,756,755
13420,743,748
13425,748,752
13430,753,744
13435,753,737
13440,752,732
13445,741,727
13450,752,718
13455,744,717
13460,745,706
13465,750,703
13470,757,701
13475,769,695
13480,755,690
13485,761,688
13490,780,675
13495,782,676
13500,778,675
13505,784,662
13510,805,669
13515,810,663
13520,808,658
13525,823,656
13530,821,651
13535,831,644
13540,850,645
13545,855,640
13550,854,640
13555,868,639
13560,877,637
13565,885,639
13570,904,633
13575,917,633
13580,925,636
13585,939,637
13590,930,641
13595,946,632
13600,963,632
13605,979,639
13610,981,643
13615,981,640
13620,1011,651
13625,1017,649
13630,1032,645
13635,1036,651
13640,1046,650
13645,1049,659
13650,1063,661
13655,1068,669
13660,1079,673
13665,1099,672
13670,1099,679
13675,1097,691
13680,1110,697
13685,1115,700
13690,1144,707
13695,1131,714
13700,1156,721
13705,1149,726
13710,1145,732
13715,1154,741
13720,1171,749
13725,1163,754
13730,1170,757
13735,1170,768
13740,1176,776
13745,1182,777
13750,1185,785
13755,1181,798
13760,1183,805
13765,1189,815
13770,1192,817
13775,1183,825
13780,1188,830
13785,1186,837
13790,1183,845
13795,1180,852
13800,1189,858
13805,1182,862
13810,1183,860
13815,1180,865
13820,1177,877
13825,1169,879
13830,1183,885
13835,1168,884
13840,1170,890
13845,1168,895
13850,1170,901
13855,1162,907
13860,1155,906
13865,1164,907
13870,1156,911
13875,1147,914
13880,1148,917
13885,1146,922
13890,1137,920
13895,1146,917
13900,1146,921
13905,1135,920
13910,1136,924
13915,1130,923
13920,1131,927
13925,1119,917
13930,1126,924
13935,1118,922
13940,1116,926
13945,1111,920
13950,1114,922
13955,1107,923
13960,1102,919
13965,1109,914
13970,1109,916
13975,1097,915
13980,1106,913
13985,1093,909
13990,1096,913
13995,1097,910
14000,1092,909
14005,1095,897
14010,1091,897
14015,1076,900
14020,1085,901
14025,1076,894
14030,1073,894
14035,1072,890
14040,1071,895
14045,1078,890
14050,1077,893
14055,1066,886
14060,1071,883
14065,1057,879
14070,1068,880
14075,1056,874
14080,1049,874
14085,1048,872
14090,1046,871
14095,1048,872
14100,1032,869
14105,1041,869
14110,1035,868
14115,1029,867
14120,1016,870
14125,1010,864
14130,1007,862
14135,1007,863
14140,994,860
14145,992,862
14150,984,855
14155,974,857
14160,974,865
14165,969,854
14170,954,854
14175,945,854
14180,948,850
14185,933,845
14190,920,851
14195,919,847
14200,910,847
14205,906,838
14210,895,838
14215,885,835
14220,877,839
14225,868,830
14230,864,826
14235,870,825
14240,846,826
14245,842,819
14250,823,821
14255,824,813
14260,824,808
14265,816,808
14270,798,802
14275,794,803
14280,796,796
14285,788,792
14290,786,790
14295,783,784
14300,769,779
14305,764,776
14310,765,765
14315,750,769
14320,751,761
14325,757,760
14330,747,750
14335,759,750
14340,748,743
14345,746,736
14350,755,727
14355,750,726
14360,747,724
14365,752,718
14370,750,709
14375,754,702
14380,755,703
14385,753,695
14390,762,690
14395,773,686
14400,772,681
14405,783,676
14410,784,672
14415,788,668
14420,798,667
14425,803,656
14430,811,658
14435,818,651
14440,828,647
14445,834,647
14450,841,642
14455,860,642
14460,864,636
14465,873,635
14470,874,632
14475,886,631
14480,913,631
14485,904,639
14490,926,628
14495,940,629
14500,954,631
14505,960,635
14510,964,639
14515,973,635
14520,983,644
14525,993,639
14530,1002,641
14535,1023,643
14540,1034,649
14545,1037,656
14550,1049,663
14555,1056,662
14560,1067,666
14565,1081,666
14570,1083,672
14575,1094,682
14580,1098,678
14585,1105,687
14590,1119,696
14595,1127,697
14600,1131,709
14605,1134,710
14610,1146,719
14615,1146,729
14620,1153,731
14625,1155,745
14630,1167,751
14635,1164,754
14640,1174,762
14645,1172,760
14650,1177,774
14655,1182,779
14660,1179,794
14665,1179,801
14670,1180,800
14675,1182,811
14680,1190,814
14685,1193,820
14690,1185,827
14695,1190,832
14700,1185,845
14705,1192,849
14710,1179,851
14715,1182,865
14720,1183,868
14725,1172,865
14730,1184,874
14735,1170,879
14740,1178,881
14745,1174,892
14750,1167,895
14755,1160,896
14760,1161,904
14765,1162,902
14770,1166,904
14775,1147,910
14780,1153,912
14785,1146,915
14790,1151,920
14795,1143,919
14800,1140,923
14805,1141,921
14810,1130,919
14815,1123,928
14820,1134,925
14825,1134,924
14830,1113,924
14835,1119,925
14840,1130,921
14845,1112,923
14850,1113,925
14855,1117,918
14860,1106,920
14865,1114,920
14870,1110,916
14875,1100,922
14880,1108,913
14885,1101,914
14890,1097,913
14895,1094,913
14900,1093,904
14905,1093,903
14910,1090,900
14915,1090,906
14920,1084,896
14925,1084,900
14930,1081,895
14935,1072,901
14940,1081,895
14945,1075,890
14950,1066,893
14955,1083,890
14960,1066,889
14965,1065,883
14970,1061,878
14975,1063,884
14980,1052,877
14985,1058,879
14990,1053,880
14995,1045,873
15000,1046,875
15005,1046,869
15010,1029,872
15015,1026,867
15020,1030,866
15025,1018,864
15030,1006,871
15035,1023,863
15040,1006,863
15045,1001,865
15050,997,859
15055,988,856
15060,969,853
15065,970,861
15070,966,858
15075,970,855
15080,963,855
15085,942,855
15090,938,847
15095,923,843
15100,927,841
15105,918,846
15110,915,842
15115,906,844
15120,893,846
15125,881,837
15130,871,838
15135,872,833
15140,859,832
15145,857,826
15150,837,821
15155,843,819
15160,831,818
15165,824,817
15170,814,814
15175,809,806
15180,798,806
15185,802,795
15190,790,798
15195,794,795
15200,784,786
15205,774,782
15210,765,779
15215,765,775
15220,762,773
15225,754,767
15230,752,761
15235,759,757
15240,746,755
15245,750,750
15250,746,737
15255,744,738
15260,749,731
15265,747,725
15270,753,724
15275,736,719
15280,744,710
15285,747,706
15290,761,704
15295,769,693
15300,771,690
15305,768,685
15310,773,682
15315,782,670
15320,776,672
15325,796,672
15330,804,667
15335,801,652
15340,810,653
15345,810,652
15350,830,648
15355,832,645
15360,843,640
15365,863,642
15370,857,634
15375,872,641
15380,885,638
15385,899,638
15390,902,638
15395,918,629
15400,925,635
15405,926,633
15410,946,634
15415,955,634
15420,962,642
15425,973,639
15430,983,634
15435,998,643
15440,1010,641
15445,1013,649
15450,1015,647
15455,1034,654
15460,1042,653
15465,1058,654
15470,1066,661
15475,1080,671
15480,1090,682
15485,1092,679
15490,1107,685
15495,1112,689
15500,1120,699
15505,1122,700
15510,1130,706
15515,1138,718
15520,1142,720
15525,1150,726
15530,1157,734
15535,1160,739
15540,1177,752
15545,1163,757
15550,1170,768
15555,1177,768
15560,1173,777
15565,1176,782
15570,1183,791
15575,1180,795
15580,1186,805
15585,1187,808
15590,1183,820
15595,1187,826
15600,1186,827
15605,1187,837
15610,1177,845
15615,1182,847
15620,1191,852
15625,1190,861
15630,1187,867
15635,1176,867
15640,1177,870
15645,1181,879
15650,1165,888
15655,1174,886
15660,1170,895
15665,1174,895
15670,1170,901
15675,1164,909
15680,1156,909
15685,1156,908
15690,1151,912
15695,1149,924
15700,1143,919
15705,1151,918
15710,1140,925
15715,1133,924
15720,1133,924
15725,1124,922
15730,1126,926
15735,1123,925
15740,1123,927
15745,1126,929
15750,1118,926
15755,1115,925
15760,1108,918
15765,1115,917
15770,1111,919
15775,1118,922
15780,1113,918
15785,1106,915
15790,1105,917
15795,1103,914
15800,1100,909
15805,1100,916
15810,1101,909
15815,1092,909
15820,1083,901
15825,1091,909
15830,1091,904
15835,1088,899
15840,1087,892
15845,1086,900
15850,1079,891
15855,1080,890
15860,1079,890
15865,1067,887
15870,1072,890
15875,1067,882
15880,1063,883
15885,1054,875
15890,1070,881
15895,1056,885
15900,1050,877
15905,1051,878
15910,1038,875
15915,1050,869
15920,1041,872
15925,1032,871
15930,1024,864
15935,1011,864
15940,1011,868
15945,1013,860
15950,1007,860
15955,1004,863
15960,992,861
15965,982,856
15970,983,853
15975,980,858
15980,978,857
15985,955,859
15990,952,851
15995,955,849
16000,936,850
16004,936,844
16010,933,843
16015,915,842
16020,909,843
16024,903,835
16030,884,841
16035,879,837
16040,873,830
16045,873,826
16050,861,827
16055,860,835
16059,845,824
16065,841,822
16070,832,823
16075,817,813
16079,822,812
16085,804,811
16090,798,808
16094,799,800
16100,788,795
16105,782,790
16110,772,790
16114,774,785
16120,769,778
16125,774,778
16129,759,770
16135,773,767
16140,755,755
16145,755,757
16149,752,754
16155,749,748
16160,752,742
16165,749,734
16170,746,723
16175,746,721
16180,745,714
16184,750,712
16190,749,714
16195,759,701
16200,756,701
16204,762,692
16210,765,692
16215,767,679
16219,780,683
16225,776,670
16230,791,675
16235,786,666
16239,800,664
16245,809,656
16250,812,654
16254,812,645
16260,829,652
16265,836,644
16270,843,643
16274,853,638
16280,862,637
16285,867,631
16290,892,632
16295,894,636
16300,904,632
16305,917,634
16309,921,630
16315,935,633
16320,939,634
16325,957,630
16329,962,639
16335,976,637
16340,988,645
16344,1010,639
16350,1006,644
16355,1020,643
16360,1033,654
16364,1034,653
16370,1048,655
16375,1063,668
16379,1070,670
16385,1078,668
16390,1083,675
16395,1091,681
16400,1106,687
16405,1114,689
16410,1116,701
16415,1130,706
16420,1135,707
16425,1132,714
16430,1150,724
16435,1149,734
16440,1163,733
16445,1154,743
16450,1172,751
16455,1161,756
16460,1174,764
16465,1175,772
16470,1166,779
16475,1180,789
16480,1178,792
16485,1192,799
16490,1186,813
16495,1183,814
16500,1190,821
16505,1192,828
16510,1192,831
16515,1189,839
16520,1184,842
16525,1179,855
16530,1184,853
16535,1177,860
16540,1185,866
16545,1175,873
16550,1183,874
16555,1175,884
16560,1180,884
16565,1178,892
16570,1169,891
16575,1166,899
16580,1167,899
16585,1162,907
16590,1160,904
16595,1159,914
16600,1157,913
16605,1148,918
16610,1150,917
16615,1141,919
16620,1140,916
16625,1139,918
16630,1128,927
16635,1137,924
16640,1130,915
16645,1123,922
16650,1123,922
16655,1128,924
16660,1123,918
16665,1116,921
16670,1113,923
16675,1114,924
16680,1109,922
16685,1103,920
16690,1105,918
16695,1104,913
16700,1107,908
16705,1099,917
16710,1100,913
16715,1093,911
16720,1088,913
16725,1091,906
16730,1088,902
16735,1081,902
16740,1088,900
16745,1082,905
16750,1080,900
16755,1078,893
16760,1079,891
16765,1072,893
16770,1076,889
16775,1073,884
16780,1066,885
16785,1063,881
16790,1067,881
16795,1069,883
16800,1053,879
16805,1057,883
16810,1058,878
16815,1039,875
16820,1043,872
16825,1043,872
16830,1034,876
16835,1031,869
16840,1035,863
16845,1021,864
16850,1011,867
16855,1017,861
16860,1003,858
16865,993,864
16870,996,864
16875,984,862
16880,984,859
16885,975,851
16890,968,855
16895,955,853
16900,955,853
16905,944,853
16910,941,851
16915,933,849
16920,922,846
16925,913,845
16930,909,839
16935,902,838
16940,889,844
16945,883,836
16950,880,831
16955,870,830
16960,863,828
16965,855,827
16970,837,825
16975,844,819
16980,830,817
16985,821,817
16990,812,805
16995,806,810
17000,795,801
17005,794,799
17010,782,800
17015,789,793
17020,778,787
17025,775,783
17030,767,782
17035,765,777
17040,757,766
17045,756,763
17050,760,759
17055,755,758
17060,746,746
17065,742,742
17070,753,739
17075,755,733
17080,750,730
17085,740,720
17090,745,715
17095,756,715
17100,748,707
17105,759,702
17110,761,702
17115,763,694
17120,764,687
17125,769,684
17130,766,678
17135,779,669
17140,795,671
17145,793,665
17150,798,660
17155,807,654
17160,818,654
17165,827,649
17170,832,649
17175,838,646
17180,848,641
17185,856,640
17190,866,638
17195,878,634
17200,880,637
17205,904,631
17210,903,632
17215,917,627
17220,929,636
17225,928,639
17230,951,631
17235,960,637
17240,972,636
17245,992,636
17250,993,643
17255,998,643
17260,1015,649
17265,1019,648
17270,1026,653
17275,1052,648
17280,1061,659
17285,1054,662
17290,1077,671
17295,1085,672
17300,1094,678
17305,1098,681
17310,1100,687
17315,1117,692
17320,1117,698
17325,1121,704
17330,1131,714
17335,1143,716
17340,1147,720
17345,1146,731
17350,1157,734
17355,1166,742
17360,1166,749
17365,1176,755
17370,1171,767
17375,1181,768
17380,1174,778
17385,1183,788
17390,1182,791
17395,1193,800
17400,1181,800
17405,1184,811
17410,1194,822
17415,1173,830
17420,1185,837
17425,1186,841
17430,1188,846
17435,1186,848
17440,1180,860
17445,1196,862
17450,1186,865
17455,1177,873
17460,1179,886
17465,1176,881
17470,1181,885
17475,1170,891
17480,1171,897
17485,1158,899
17490,1173,902
17495,1158,912
17500,1166,910
17505,1156,912
17510,1152,913
17515,1155,913
17520,1141,917
17525,1139,923
17530,1139,919
17535,1141,918
17540,1128,925
17545,1133,922
17550,1119,927
17555,1138,926
17560,1124,924
17565,1122,923
17570,1127,924
17575,1114,917
17580,1114,918
17585,1111,923
17590,1112,914
17595,1115,919
17600,1101,919
17605,1106,914
17610,1103,918
17615,1110,911
17620,1098,911
17625,1099,910
17630,1094,903
17635,1091,909
17640,1093,904
17645,1089,908
17650,1091,906
17655,1079,903
17660,1087,900
17665,1079,897
17670,1077,890
17675,1066,894
17680,1073,889
17685,1079,885
17690,1066,889
17695,1071,884
17700,1067,881
17705,1062,880
17710,1057,884
17715,1053,881
17720,1046,875
17725,1050,876
17730,1046,872
17735,1037,871
17740,1047,869
17745,1035,869
17750,1025,869
17755,1019,867
17760,1022,860
17765,1008,866
17770,1008,856
17775,995,860
17780,988,860
17785,984,863
17790,976,854
17795,978,856
17800,963,855
17805,964,855
17810,952,854
17815,939,847
17820,936,852
17825,928,846
17830,923,843
17835,906,845
17840,901,845
17845,897,839
17850,891,839
17855,875,834
17860,868,834
17865,864,832
17870,862,825
17875,851,820
17880,850,822
17885,825,820
17890,835,812
17895,829,817
17900,811,806
17905,803,809
17910,797,800
17915,800,798
17920,788,794
17925,785,790
17930,770,789
17935,767,782
17940,769,772
17945,771,774
17950,761,772
17955,772,765
17960,755,761
17965,750,751
17970,749,749
17975,745,740
17980,756,736
17985,751,730
17990,748,732
17995,752,724
18000,751,718
18005,749,712
18010,739,711
18015,748,705
18020,760,700
18025,758,690
18030,760,685
18035,770,681
18040,775,677
18045,775,674
18050,788,670
18055,797,662
18060,799,660
18065,801,656
18070,822,654
18075,830,658
18080,835,649
18085,850,639
18090,849,637
18095,859,639
18100,872,638
18105,873,636
18110,887,635
18115,897,637
18120,909,632
18125,919,629
18130,925,633
18135,939,631
18140,936,630
18145,958,636
18150,977,636
18155,984,641
18160,988,640
18165,1003,638
18170,1011,652
18175,1020,648
18180,1038,649
18185,1048,653
18190,1053,657
18195,1070,658
18200,1065,669
18205,1081,675
18210,1089,674
18215,1096,681
18220,1103,680
18225,1116,689
18230,1107,694
18235,1130,709
18240,1128,716
18245,1140,714
18250,1154,723
18255,1152,731
18260,1153,731
18265,1155,743
18270,1162,748
18275,1180,756
18280,1177,766
18285,1172,768
18290,1179,777
18295,1182,792
18300,1182,791
18305,1188,803
18310,1179,803
18315,1183,817
18320,1191,822
18325,1192,820
18330,1191,829
18335,1184,839
18340,1189,846
18345,1184,848
18350,1186,857
18355,1183,861
18360,1182,869
18365,1189,876
18370,1182,875
18375,1174,878
18380,1176,890
18385,1167,892
18390,1165,899
18395,1166,896
18400,1167,909
18405,1163,903
18410,1159,912
18415,1150,908
18420,1152,913
18425,1146,914
18430,1145,918
18435,1143,920
18440,1142,918
18445,1144,919
18450,1128,925
18455,1135,925
18460,1130,925
18465,1138,918
18470,1124,926
18475,1118,924
18480,1124,922
18485,1113,918
18490,1117,918
18495,1107,922
18500,1108,921
18505,1115,919
18510,1103,921
18515,1107,915
18520,1093,921
18525,1102,912
18530,1094,910
18535,1106,910
18540,1092,907
18545,1095,906
18550,1084,908
18555,1094,900
18560,1079,906
18565,1087,893
18570,1093,898
18575,1083,896
18580,1079,885
18585,1073,893
18590,1068,889
18595,1065,886
18600,1070,885
18605,1061,887
18610,1063,881
18615,1064,878
18620,1046,879
18625,1049,875
18630,1050,869
18635,1048,876
18640,1041,873
18645,1036,874
18650,1032,868
18655,1030,868
18660,1025,866
18665,1020,866
18670,1009,868
18675,1009,860
18680,1010,860
18685,1002,861
18690,990,859
18695,997,855
18700,974,848
18705,977,850
18710,964,859
18715,957,853
18720,948,854
18725,936,853
18730,937,843
18735,922,848
18740,916,849
18745,912,845
18750,900,841
18755,895,837
18760,881,839
18765,879,833
18770,886,828
18775,864,833
18780,858,829
18785,855,827
18790,845,824
18795,827,819
18800,824,815
18805,823,814
18810,812,807
18815,809,805
18820,798,801
18825,802,797
18830,785,798
18835,783,791
18840,783,784
18845,777,781
18850,775,774
18855,775,769
18860,763,770
18865,759,765
18870,763,758
18875,761,755
18880,751,748
18885,748,742
18890,736,734
18895,747,732
18900,748,728
18905,741,721
18910,752,713
18915,753,714
18920,764,707
18925,769,698
18930,752,692
18935,773,689
18940,765,687
18945,767,680
18950,790,676
18955,785,675
18960,788,673
18965,792,667
18970,808,662
18975,814,656
18980,811,654
18985,826,654
18990,832,643
18995,845,647
19000,862,637
19005,861,640
19010,867,640
19015,884,638
19020,886,639
19025,903,633
19030,908,634
19035,926,625
19040,936,634
19045,928,636
19050,945,635
19055,956,639
19060,973,635
19065,994,635
19070,1007,640
19075,1000,646
19080,1009,647
19085,1024,651
19090,1036,653
19095,1046,658
19100,1059,662
19105,1064,667
19110,1076,662
19115,1079,669
19120,1090,674
19125,1097,684
19130,1107,687
19135,1114,693
19140,1124,701
19145,1127,705
19150,1140,712
19155,1135,719
19160,1145,725
19165,1148,723
19170,1160,740
19175,1171,740
19180,1162,754
19185,1173,759
19190,1175,766
19195,1182,778
19200,1185,780
19205,1183,789
19210,1183,785
19215,1185,799
19220,1184,809
19225,1194,817
19230,1192,821
19235,1182,828
19240,1185,832
19245,1187,842
19250,1194,850
19255,1197,849
19260,1192,860
19265,1187,866
19270,1190,868
19275,1181,875
19280,1176,885
19285,1174,886
19290,1180,888
19295,1168,890
19300,1160,900
19305,1177,904
19310,1166,904
19315,1152,909
19320,1149,912
19325,1159,910
19330,1152,915
19335,1146,917
19340,1137,922
19345,1148,923
19350,1140,921
19355,1144,923
19360,1144,924
19365,1131,925
19370,1127,926
19375,1117,920
19380,1116,922
19385,1125,923
19390,1108,924
19395,1123,923
19400,1118,922
19405,1116,916
19410,1116,924
19415,1111,916
19420,1094,914
19425,1099,913
19430,1101,919
19435,1104,915
19440,1105,910
19445,1095,909
19450,1093,903
19455,1094,906
19460,1082,904
19465,1091,895
19470,1092,903
19475,1093,891
19480,1082,895
19485,1088,893
19490,1080,891
19495,1076,886
19500,1075,890
19505,1071,884
19510,1071,890
19515,1066,881
19520,1071,881
19525,1050,880
19530,1057,876
19535,1052,875
19540,1049,877
19545,1044,873
19550,1041,879
19555,1034,869
19560,1026,867
19565,1027,870
19570,1029,865
19575,1025,862
19580,1003,864
19585,1019,858
19590,1007,860
19595,997,864
19600,992,854
19605,988,856
19610,978,859
19615,969,855
19620,965,855
19625,950,850
19630,948,852
19635,935,848
19640,942,846
19645,929,845
19650,933,849
19655,914,844
19660,902,844
19665,895,839
19670,878,843
19675,880,833
19680,874,833
19685,868,836
19690,852,827
19695,850,826
19700,836,816
19705,832,820
19710,825,817
19715,822,818
19720,820,811
19725,820,806
19730,793,805
19735,793,793
19740,786,793
19745,780,787
19750,775,785
19755,763,774
19760,768,776
19765,767,778
19770,760,769
19775,758,760
19780,749,758
19785,749,748
19790,759,750
19795,748,743
19800,758,741
19805,751,738
19810,740,731
19815,760,724
19820,755,710
19825,760,715
19830,749,705
19835,755,699
19840,765,696
19845,758,688
19850,768,692
19855,769,679
19860,777,680
19865,791,677
19870,789,670
19875,791,666
19880,798,663
19885,809,657
19890,819,652
19895,833,654
19900,831,644
19905,847,648
19910,854,643
19915,855,637
19920,869,635
19925,884,634
19930,884,636
19935,900,640
19940,917,633
19945,920,630
19950,940,631
19955,940,632
19960,954,638
19965,960,634
19970,972,640
19975,981,641
19980,990,639
19985,999,641
19990,1017,651
19995,1020,646
20000,1046,655
20005,1047,656
20010,1056,663
20015,1053,661
20020,1074,671
20025,1088,668
20030,1091,677
20035,1109,684
20040,1111,691
20045,1119,687
20050,1122,699
20055,1123,710
20060,1132,713
20065,1134,720
20070,1147,729
20075,1155,732
20080,1156,741
20085,1154,744
20090,1168,756
20095,1171,757
20100,1166,769
20105,1178,775
20110,1179,786
20115,1181,787
20120,1184,790
20125,1175,803
20130,1190,813
20135,1184,815
20140,1192,823
20145,1186,828
20150,1190,837
20155,1195,844
20160,1180,853
20165,1183,856
20170,1182,861
20175,1188,865
20180,1172,870
20185,1186,878
20190,1187,879
20195,1173,885
20200,1171,894
20205,1170,888
20210,1171,897
20215,1169,901
20220,1157,904
20225,1158,906
20230,1163,915
20235,1143,907
20240,1156,917
20245,1148,914
20250,1155,918
20255,1137,917
20260,1134,925
20265,1131,922
20270,1134,926
20275,1125,921
20280,1131,924
20285,1126,922
20290,1124,917
20295,1121,922
20300,1124,928
20305,1113,924
20310,1119,920
20315,1103,923
20320,1114,924
20325,1099,919
20330,1106,918
20335,1107,915
20340,1100,914
20345,1096,910
20350,1094,911
20355,1094,911
20360,1088,908
20365,1086,907
20370,1091,901
20375,1083,902
20380,1086,902
20385,1085,898
20390,1085,901
20395,1075,896
20400,1070,893
20405,1081,891
20410,1077,886
20415,1073,887
20420,1067,882
20425,1069,882
20430,1057,881
20435,1066,878
20440,1063,879
20445,1048,880
20450,1053,878
20455,1043,870
20460,1031,871
20465,1033,872
20470,1034,869
20475,1024,874
20480,1033,863
20485,1016,865
20490,1017,862
20495,1007,861
20500,1003,869
20505,997,858
20510,993,859
20515,974,857
20520,976,859
20525,964,855
20530,965,855
20535,959,857
20540,949,852
20545,941,853
20550,938,848
20555,920,841
20560,920,845
20565,907,846
20570,903,843
20575,890,840
20580,890,832
20585,884,836
20590,868,834
20595,867,832
20600,856,827
20605,848,828
20610,835,818
20615,825,820
20620,825,818
20625,817,814
20630,802,808
20635,800,807
20640,805,804
20645,794,797
20650,782,795
20655,781,792
20660,773,787
20665,770,783
20670,762,776
20675,770,771
20680,760,760
20685,752,767
20690,757,762
20695,762,748
20700,746,747
20705,747,740
20710,743,738
20715,748,733
20720,755,727
20725,744,719
20730,750,717
20735,751,714
20740,759,702
20745,759,705
20750,771,689
20755,762,689
20760,769,686
20765,765,680
20770,778,672
20775,791,674
20780,796,669
20785,805,666
20790,802,661
20795,809,655
20800,812,648
20805,816,653
20810,842,649
20815,835,642
20820,854,645
20825,864,641
20830,880,638
20835,882,635
20840,894,639
20845,902,633
20850,908,634
20855,918,629
20860,935,632
20865,943,634
20870,958,641
20875,967,632
20880,975,638
20885,979,641
20890,993,644
20895,1003,644
20900,1021,650
20905,1028,649
20910,1042,654
20915,1045,658
20920,1067,657
20925,1071,666
20930,1077,673
20935,1087,676
20940,1090,680
20945,1103,685
20950,1107,692
20955,1117,698
20960,1124,700
20965,1123,706
20970,1142,710
20975,1148,717
20980,1145,726
20985,1157,734
20990,1156,742
20995,1171,750
21000,1164,761
21005,1173,758
21010,1173,766
21015,1178,775
21020,1177,779
21025,1174,791
21030,1176,797
21035,1181,805
21040,1193,803
21045,1175,813
21050,1187,820
21055,1179,831
21060,1193,837
21065,1185,847
21070,1181,854
21075,1184,858
21080,1183,861
21085,1183,863
21090,1183,876
21095,1170,877
21100,1174,883
21105,1178,884
21110,1174,892
21115,1173,894
21120,1161,900
21125,1171,905
21130,1162,904
21135,1161,904
21140,1155,910
21145,1153,914
21150,1151,913
21155,1146,916
21160,1142,918
21165,1146,922
21170,1137,921
21175,1139,922
21180,1133,921
21185,1139,920
21190,1128,920
21195,1131,924
21200,1111,924
21205,1129,923
21210,1110,922
21215,1105,926
21220,1108,919
21225,1105,920
21230,1107,921
21235,1117,921
21240,1107,914
21245,1105,915
21250,1103,914
21255,1095,910
21260,1095,905
21265,1100,910
21270,1090,915
21275,1091,904
21280,1095,910
21285,1093,901
21290,1090,897
21295,1081,901
21300,1073,899
21305,1077,892
21310,1075,900
21315,1092,889
21320,1071,887
21325,1066,885
21330,1064,885
21335,1060,883
21340,1065,884
21345,1046,884
21350,1066,875
21355,1052,876
21360,1053,874
21365,1050,872
21370,1043,876
21375,1045,874
21380,1034,871
21385,1026,871
21390,1028,870
21395,1018,866
21400,1009,863
21405,1014,864
21410,998,860
21415,990,851
21420,981,858
21425,984,855
21430,968,856
21435,975,851
21440,958,853
21445,952,855
21450,950,851
21455,936,852
21460,937,847
21465,926,851
21470,914,846
21475,912,840
21480,900,836
21485,896,839
21490,884,833
21495,873,829
21500,871,831
21505,857,829
21510,855,827
21515,844,820
21520,847,819
21525,827,818
21530,818,815
21535,809,816
21540,806,813
21545,803,806
21550,799,796
21555,789,789
21560,787,794
21565,775,785
21570,781,784
21575,777,781
21580,771,773
21585,767,766
21590,764,770
21595,748,758
21600,752,756
21605,758,754
21610,748,744
21615,748,737
21620,746,739
21625,749,735
21630,741,731
21635,748,717
21640,751,711
21645,760,705
21650,752,702
21655,763,703
21660,756,694
21665,764,687
21670,765,686
21675,775,674
21680,776,677
21685,791,672
21690,798,668
21695,793,661
21700,799,664
21705,815,653
21710,823,653
21715,829,645
21720,842,643
21725,845,639
21730,850,642
21735,862,640
21740,873,635
21745,884,636
21750,886,634
21755,908,628
21760,911,633
21765,925,630
21770,927,633
21775,946,634
21780,962,636
21785,957,638
21790,975,634
21795,992,643
21800,993,640
21805,1009,638
21810,1018,647
21815,1033,651
21820,1050,651
21825,1043,656
21830,1052,660
21835,1073,668
21840,1079,671
21845,1087,671
21850,1092,683
21855,1098,681
21860,1104,689
21865,1112,695
21870,1126,698
21875,1130,706
21880,1136,707
21885,1143,723
21890,1148,726
21895,1150,733
21900,1152,741
21905,1164,749
21910,1175,755
21915,1173,766
21920,1171,771
21925,1173,771
21930,1182,784
21935,1175,791
21940,1185,798
21945,1188,811
21950,1182,809
21955,1191,817
21960,1189,828
21965,1188,829
21970,1191,838
21975,1182,841
21980,1178,851
21985,1184,857
21990,1192,862
21995,1188,868
22000,1182,871
22005,1183,875
22010,1181,884
22015,1176,886
22020,1177,890
22025,1171,896
22030,1160,897
22035,1160,897
22040,1174,903
22045,1163,906
22050,1147,913
22055,1156,911
22060,1155,924
22065,1149,920
22070,1149,916
22075,1140,924
22080,1129,922
22085,1136,927
22090,1126,925
22095,1122,915
22100,1122,926
22105,1116,920
22110,1128,923
22115,1114,929
22120,1118,925
22125,1114,926
22130,1108,920
22135,1106,925
22140,1117,920
22145,1104,915
22150,1101,913
22155,1106,914
22160,1105,914
22165,1099,912
22170,1091,908
22175,1096,909
22180,1096,902
22185,1099,905
22190,1090,909
22195,1086,902
22200,1083,900
22205,1085,902
22210,1078,894
22215,1086,889
22220,1078,894
22225,1074,889
22230,1064,891
22235,1073,890
22240,1065,884
22245,1064,884
22250,1064,881
22255,1050,877
22260,1055,880
22265,1048,873
22270,1049,875
22275,1046,873
22280,1026,869
22285,1044,872
22290,1032,874
22295,1028,864
22300,1014,869
22305,1025,860
22310,1012,862
22315,1002,864
22320,997,859
22325,1000,856
22330,992,859
22335,974,856
22340,982,851
22345,973,860
22350,955,852
22355,951,854
22360,942,853
22365,939,849
22370,931,848
22375,923,847
22380,911,845
22385,904,841
22390,909,843
22395,888,839
22400,890,835
22405,870,832
22410,861,831
22415,864,833
22420,865,827
22425,846,827
22430,834,821
22435,826,815
22440,820,813
22445,817,809
22450,811,809
22455,797,801
22460,793,799
22465,794,793
22470,783,794
22475,786,788
22480,783,784
22485,768,781
22490,772,770
22495,756,771
22500,761,766
22505,755,762
22510,743,755
22515,752,751
22520,757,745
22525,744,737
22530,755,738
22535,755,732
22540,745,724
22545,754,718
22550,752,715
22555,741,704
22560,753,703
22565,762,699
22570,763,692
22575,768,685
22580,770,692
22585,771,677
22590,784,675
22595,780,665
22600,787,667
22605,801,660
22610,808,665
22615,810,658
22620,819,652
22625,824,648
22630,834,646
22635,838,641
22640,854,636
22645,863,639
22650,877,635
22655,879,642
22660,900,631
22665,907,633
22670,917,636
22675,927,635
22680,940,635
22685,949,627
22690,962,636
22695,974,634
22700,984,632
22705,990,643
22710,1007,640
22715,1002,642
22720,1023,644
22725,1036,652
22730,1043,658
22735,1049,655
22740,1056,661
22745,1074,668
22750,1074,666
22755,1092,673
22760,1089,681
22765,1107,689
22770,1114,697
22775,1119,691
22780,1138,702
22785,1130,710
22790,1138,715
22795,1156,720
22800,1147,725
22805,1160,739
22810,1159,743
22815,1173,751
22820,1173,757
22825,1180,767
22830,1170,765
22835,1182,773
22840,1184,782
22845,1187,793
22850,1184,796
22855,1188,806
22860,1188,810
22865,1197,821
22870,1190,831
22875,1182,831
22880,1191,833
22885,1187,843
22890,1184,851
22895,1187,855
22900,1185,865
22905,1192,865
22910,1184,872
22915,1180,882
22920,1179,882
22925,1175,887
22930,1179,895
22935,1171,897
22940,1168,900
22945,1168,906
22950,1163,902
22955,1160,910
22960,1153,912
22965,1158,909
22970,1145,911
22975,1149,920
22980,1147,918
22985,1135,917
22990,1141,925
22995,1129,918
23000,1130,930
23005,1126,923
23010,1138,925
23015,1121,929
23020,1115,920
23025,1121,922
23030,1116,916
23035,1116,916
23040,1111,922
23045,1112,930
23050,1117,919
23055,1108,916
23060,1101,915
23065,1106,911
23070,1106,916
23075,1098,910
23080,1096,906
23085,1096,909
23090,1088,911
23095,1088,903
23100,1090,904
23105,1097,900
23110,1085,898
23115,1084,896
23120,1084,896
23125,1075,896
23130,1078,895
23135,1064,887
23140,1066,887
23145,1062,884
23150,1063,880
23155,1075,885
23160,1063,887
23165,1056,881
23170,1055,878
23175,1058,874
23180,1058,870
23185,1038,874
23190,1041,872
23195,1031,871
23200,1032,868
23205,1031,870
23210,1018,866
23215,1022,866
23220,1012,866
23225,1015,864
23230,999,856
23235,986,860
23240,997,857
23245,970,861
23250,972,853
23255,967,856
23260,955,855
23265,952,850
23270,935,848
23275,947,848
23280,922,846
23285,920,846
23290,923,841
23295,910,847
23300,906,837
23305,898,842
23310,885,835
23315,870,831
23320,867,830
23325,857,836
23330,853,826
23335,850,831
23340,831,814
23345,832,818
23350,826,816
23355,813,807
23360,822,806
23365,798,802
23370,785,798
23375,783,792
23380,781,794
23385,771,787
23390,776,786
23395,767,776
23400,772,773
23405,766,764
23410,769,764
23415,746,763
23420,754,758
23425,745,747
23430,754,743
23435,747,736
23440,743,733
23445,740,733
23450,747,725
23455,753,716
23460,748,714
23465,755,713
23470,761,698
23475,755,698
23480,762,688
23485,772,687
23490,770,684
23495,771,683
23500,783,674
23505,789,674
23510,789,665
23515,800,668
23520,813,657
23525,821,651
23530,821,650
23535,834,647
23540,835,647
23545,841,641
23550,862,641
23555,863,637
23560,879,636
23565,881,638
23570,896,638
23575,919,631
23580,917,638
23585,931,634
23590,945,637
23595,953,636
23600,964,636
23605,963,640
23610,975,636
23615,991,634
23620,1004,640
23625,1004,648
23630,1023,645
23635,1026,648
23640,1045,654
23645,1059,661
23650,1060,668
23655,1077,661
23660,1088,672
23665,1079,679
23670,1099,686
23675,1104,685
23680,1116,693
23685,1130,693
23690,1124,703
23695,1128,713
23700,1134,717
23705,1147,724
23710,1155,736
23715,1156,734
23720,1167,747
23725,1171,750
23730,1166,760
23735,1173,761
23740,1178,767
23745,1181,775
23750,1186,779
23755,1179,787
23760,1184,801
23765,1187,808
23770,1188,812
23775,1183,820
23780,1196,831
23785,1186,835
23790,1185,843
23795,1188,846
23800,1180,847
23805,1188,855
23810,1175,864
23815,1186,865
23820,1177,876
23825,1180,877
23830,1169,886
23835,1178,886
23840,1165,891
23845,1165,891
23850,1158,897
23855,1157,903
23860,1158,906
23865,1158,909
23870,1153,921
23875,1156,911
23880,1160,915
23885,1140,919
23890,1135,922
23895,1143,920
23900,1137,924
23905,1134,923
23910,1128,922
23915,1134,924
23920,1135,922
23925,1126,927
23930,1127,924
23935,1121,927
23940,1110,921
23945,1111,922
23950,1111,915
23955,1106,921
23960,1099,915
23965,1106,921
23970,1099,915
23975,1105,914
23980,1096,911
23985,1102,916
23990,1099,906
23995,1103,912
24000,1092,906
24005,1088,901
24010,1092,901
24015,1080,901
24020,1079,903
24025,1085,899
24030,1077,901
24035,1085,894
24040,1078,889
24045,1075,887
24050,1067,890
24055,1072,887
24060,1062,881
24065,1074,883
24070,1061,884
24075,1059,880
24080,1050,878
24085,1046,870
24090,1041,872
24095,1042,876
24100,1039,874
24105,1037,873
24110,1033,871
24115,1023,865
24120,1024,863
24125,1016,866
24130,1018,860
24135,1005,861
24140,1004,856
24145,986,853
24150,992,864
24155,984,861
24160,976,856
24165,958,847
24170,967,851
24175,943,854
24180,939,850
24185,944,854
24190,924,847
24195,913,847
24200,917,853
24205,902,839
24210,891,841
24215,884,844
24220,884,839
24225,875,834
24230,871,836
24235,867,828
24240,842,827
24245,846,819
24250,834,823
24255,835,817
24260,825,810
24265,808,810
24270,803,802
24275,801,803
24280,792,799
24285,786,793
24290,779,790
24295,780,783
24300,771,784
24305,772,779
24310,766,768
24315,754,767
24320,760,768
24325,750,758
24330,760,752
24335,747,750
24340,756,742
24345,750,738
24350,752,736
24355,745,725
24360,747,721
24365,755,722
24370,745,710
24375,756,706
24380,752,702
24385,762,700
24390,755,692
24395,769,685
24400,773,683
24405,778,675
24410,779,674
24415,786,665
24420,795,666
24425,803,660
24430,811,665
24435,819,654
24440,818,647
24445,829,651
24450,840,641
24455,852,638
24460,862,644
24465,870,637
24470,872,641
24475,887,630
24480,898,638
24485,907,633
24490,914,638
24495,927,637
24500,934,638
24505,956,633
24510,949,633
24515,969,637
24520,983,639
24525,990,644
24530,1001,647
24535,1015,647
24540,1028,646
24545,1031,649
24550,1039,658
24555,1047,660
24560,1060,658
24565,1077,665
24570,1092,669
24575,1094,681
24580,1099,681
24585,1109,687
24590,1117,693
24595,1121,700
24600,1132,706
24605,1138,714
24610,1138,718
24615,1146,723
24620,1144,732
24625,1159,733
24630,1161,742
24635,1167,757
24640,1180,756
24645,1177,768
24650,1168,764
24655,1180,779
24660,1176,787
24665,1181,795
24670,1190,799
24675,1187,810
24680,1187,814
24685,1195,822
24690,1183,826
24695,1194,837
24700,1193,844
24705,1182,838
24710,1193,856
24715,1183,855
24720,1184,857
24725,1176,868
24730,1182,877
24735,1178,882
24740,1178,885
24745,1171,888
24750,1173,889
24755,1162,900
24760,1161,899
24765,1160,900
24770,1155,898
24775,1152,909
24780,1156,908
24785,1151,913
24790,1145,916
24795,1151,925
24800,1154,923
24805,1139,917
24810,1134,921
24815,1139,918
24820,1131,924
24825,1128,924
24830,1125,930
24835,1126,921
24840,1117,921
24845,1119,922
24850,1112,922
24855,1108,919
24860,1115,916
24865,1114,921
24870,1101,921
24875,1108,919
24880,1100,914
24885,1107,912
24890,1100,912
24895,1099,912
24900,1098,905
24905,1090,904
24910,1090,908
24915,1087,908
24920,1094,906
24925,1083,899
24930,1085,904
24935,1080,897
24940,1083,892
24945,1084,891
24950,1078,889
24955,1080,890
24960,1082,886
24965,1065,886
24970,1061,885
24975,1073,884
24980,1052,882
24985,1055,874
24990,1062,873
24995,1050,877
25000,1038,869
25005,1041,870
25010,1038,867
25015,1025,869
25020,1032,866
25025,1026,870
25030,1012,862
25035,1008,863
25040,1009,863
25045,1011,863
25050,995,861
25055,990,860
25060,984,862
25065,980,854
25070,968,858
25075,964,854
25080,958,858
25085,949,849
25090,944,849
25095,939,853
25100,926,851
25105,921,843
25110,916,846
25115,908,847
25120,889,835
25125,889,835
25130,885,836
25135,873,834
25140,862,834
25145,854,828
25150,852,825
25155,836,828
25160,844,817
25165,829,807
25170,819,812
25175,813,812
25180,805,807
25185,798,800
25190,789,800
25195,794,792
25200,772,790
25205,784,783
25210,777,777
25215,769,776
25220,765,773
25225,770,771
25230,754,760
25235,753,757
25240,752,747
25245,743,744
25250,752,740
25255,740,740
25260,750,732
25265,744,721
25270,743,722
25275,747,717
25280,742,713
25285,749,704
25290,744,703
25295,763,693
25300,760,690
25305,767,689
25310,775,691
25315,782,680
25320,781,674
25325,786,670
25330,796,664
25335,800,663
25340,820,651
25345,816,651
25350,832,650
25355,830,645
25360,839,650
25365,845,645
25370,869,641
25375,872,633
25380,881,639
25385,892,634
25390,895,632
25395,904,632
25400,917,639
25405,931,636
25410,954,637
25415,952,636
25420,961,635
25425,965,638
25430,980,642
25435,994,639
25440,1001,638
25445,1009,645
25450,1030,653
25455,1034,647
25460,1038,652
25465,1053,654
25470,1064,662
25475,1078,666
25480,1084,670
25485,1090,675
25490,1094,686
25495,1119,693
25500,1115,697
25505,1121,698
25510,1132,705
25515,1142,710
25520,1148,720
25525,1141,725
25530,1157,737
25535,1163,737
25540,1157,746
25545,1171,751
25550,1178,758
25555,1182,765
25560,1174,774
25565,1188,782
25570,1178,787
25575,1182,796
25580,1193,800
25585,1192,803
25590,1196,815
25595,1186,820
25600,1181,826
25605,1190,832
25610,1185,841
25615,1178,850
25620,1190,853
25625,1178,858
25630,1179,861
25635,1176,870
25640,1177,878
25645,1176,880
25650,1176,890
25655,1173,887
25660,1171,891
25665,1168,897
25670,1168,903
25675,1163,903
25680,1154,903
25685,1153,906
25690,1156,910
25695,1155,914
25700,1153,911
25705,1144,922
25710,1136,918
25715,1135,921
25720,1135,924
25725,1129,926
25730,1131,922
25735,1125,922
25740,1136,924
25745,1127,928
25750,1112,921
25755,1122,926
25760,1110,925
25765,1117,921
25770,1118,925
25775,1115,915
25780,1103,916
25785,1102,912
25790,1099,919
25795,1108,913
25800,1090,914
25805,1094,911
25810,1092,913
25815,1093,911
25820,1086,906
25825,1085,903
25830,1083,900
25835,1085,903
25840,1078,896
25845,1088,898
25850,1083,890
25855,1078,888
25860,1078,891
25865,1074,891
25870,1070,889
25875,1067,885
25880,1069,887
25885,1065,886
25890,1064,884
25895,1059,876
25900,1041,884
25905,1041,877
25910,1054,872
25915,1032,870
25920,1043,869
25925,1038,868
25930,1035,865
25935,1031,868
25940,1019,863
25945,1019,863
25950,1002,862
25955,997,857
25960,988,860
25965,991,860
25970,981,858
25975,969,858
25980,962,855
25985,961,853
25990,952,848
25995,951,852
26000,940,853
26005,937,854
26010,922,846
26015,913,849
26020,910,842
26025,900,843
26030,895,834
26035,892,838
26040,883,833
26045,868,832
26050,872,839
26055,855,829
26060,838,830
26065,838,825
26070,830,825
26075,825,812
26080,820,816
26085,811,805
26090,809,802
26095,806,801
26100,797,795
26105,780,795
26110,790,788
26115,782,785
26120,766,778
26125,765,779
26130,764,774
26135,763,764
26140,756,766
26145,745,752
26150,743,743
26155,752,741
26160,748,740
26165,752,737
26170,747,725
26175,751,724
26180,748,721
26185,754,718
26190,756,710
26195,758,701
26200,750,702
26205,757,691
26210,764,695
26215,764,683
26220,773,679
26225,785,682
26230,797,673
26235,791,665
26240,799,661
26245,798,665
26250,811,658
26255,809,652
26260,822,651
26265,830,646
26270,840,640
26275,858,644
26280,864,639
26285,866,638
26290,884,636
26295,892,635
26300,901,637
26305,913,632
26310,915,635
26315,929,633
26320,943,632
26325,949,634
26330,978,630
26335,967,643
26340,981,642
26345,997,637
26350,1011,644
26355,1024,643
26360,1031,648
26365,1034,658
26370,1049,651
26375,1059,658
26380,1062,664
26385,1081,666
26390,1087,677
26395,1100,673
26400,1104,684
26405,1103,684
26410,1114,692
26415,1125,699
26420,1128,710
26425,1132,716
26430,1139,717
26435,1154,725
26440,1154,731
26445,1164,742
26450,1161,746
26455,1172,757
26460,1164,758
26465,1185,766
26470,1171,777
26475,1181,785
26480,1183,790
26485,1186,791
26490,1192,806
26495,1191,806
26500,1182,815
26505,1185,824
26510,1174,830
26515,1202,830
26520,1189,836
26525,1183,844
26530,1192,852
26535,1181,861
26540,1185,868
26545,1177,869
26550,1180,874
26555,1175,880
26560,1186,882
26565,1166,891
26570,1166,894
26575,1165,897
26580,1156,902
26585,1158,910
26590,1161,907
26595,1154,903
26600,1149,910
26605,1146,917
26610,1144,915
26615,1145,918
26620,1148,922
26625,1142,918
26630,1129,926
26635,1139,923
26640,1129,926
26645,1121,927
26650,1130,921
26655,1128,925
26660,1122,926
26665,1120,924
26670,1113,923
26675,1114,920
26680,1107,920
26685,1109,911
26690,1110,920
26695,1108,923
26700,1104,912
26705,1105,917
26710,1095,919
26715,1089,907
26720,1087,909
26725,1095,908
26730,1084,904
26735,1084,906
26740,1083,906
26745,1086,901
26750,1068,900
26755,1077,893
26760,1081,897
26765,1077,888
26770,1070,889
26775,1071,889
26780,1065,886
26785,1073,887
26790,1068,882
26795,1067,882
26800,1066,884
26805,1051,872
26810,1045,873
26815,1048,877
26820,1045,874
26825,1040,871
26830,1031,872
26835,1032,866
26840,1036,869
26845,1018,867
26850,1024,869
26855,1016,864
26860,999,858
26865,1004,866
26870,989,859
26875,987,858
26880,984,856
26885,976,855
26890,976,862
26895,945,855
26900,956,853
26905,960,853
26910,934,859
26915,926,847
26920,923,842
26925,921,845
26930,916,843
26935,896,843
26940,890,835
26945,891,834
26950,883,838
26955,863,828
26960,867,828
26965,863,829
26970,848,827
26975,846,825
26980,821,813
26985,828,818
26990,820,813
26995,801,812
27000,799,803
27005,803,793
27010,792,800
27015,793,791
27020,774,789
27025,780,786
27030,769,778
27035,770,779
27040,768,777
27045,766,767
27050,755,761
27055,748,760
27060,751,749
27065,752,746
27070,744,738
27075,747,745
27080,748,721
27085,747,729
27090,749,718
27095,742,717
27100,749,711
27105,752,708
27110,760,702
27115,762,693
27120,762,690
27125,781,690
27130,774,681
27135,786,679
27140,781,671
27145,791,668
27150,791,666
27155,798,659
27160,813,652
27165,812,650
27170,828,654
27175,842,651
27180,837,643
27185,850,635
27190,865,635
27195,871,637
27200,878,639
27205,898,635
27210,902,629
27215,913,628
27220,933,635
27225,931,636
27230,946,633
27235,957,631
27240,964,639
27245,969,640
27250,983,637
27255,1003,638
27260,1006,646
27265,1021,652
27270,1023,651
27275,1040,656
27280,1047,656
27285,1052,662
27290,1072,671
27295,1074,673
27300,1090,670
27305,1085,680
27310,1100,688
27315,1109,690
27320,1116,703
27325,1129,702
27330,1134,709
27335,1131,716
27340,1139,728
27345,1149,731
27350,1161,743
27355,1154,746
27360,1161,743
27365,1161,755
27370,1171,758
27375,1176,770
27380,1180,768
27385,1178,787
27390,1183,786
27395,1176,794
27400,1184,805
27405,1193,811
27410,1181,816
27415,1187,823
27420,1187,831
27425,1191,835
27430,1187,842
27435,1181,845
27440,1179,855
27445,1177,861
27450,1180,864
27455,1183,872
27460,1165,876
27465,1181,877
27470,1184,883
27475,1166,890
27480,1170,896
27485,1173,895
27490,1167,902
27495,1157,905
27500,1149,905
27505,1158,911
27510,1158,915
27515,1152,917
27520,1147,919
27525,1151,919
27530,1149,921
27535,1140,918
27540,1133,922
27545,1137,920
27550,1132,927
27555,1135,928
27560,1117,922
27565,1124,925
27570,1122,922
27575,1115,921
27580,1106,924
27585,1113,919
27590,1113,916
27595,1105,918
27600,1117,920
27605,1110,920
27610,1101,914
27615,1103,916
27620,1107,911
27625,1099,913
27630,1092,911
27635,1095,907
27640,1088,906
27645,1089,902
27650,1095,907
27655,1078,905
27660,1081,895
27665,1085,895
27670,1066,894
27675,1073,887
27680,1080,881
27685,1069,884
27690,1062,890
27695,1061,883
27700,1065,880
27705,1067,881
27710,1065,879
27715,1050,878
27720,1055,877
27725,1047,878
27730,1049,872
27735,1042,873
27740,1026,870
27745,1030,873
27750,1019,868
27755,1023,865
27760,1022,864
27765,1017,861
27770,1006,865
27775,995,863
27780,993,859
27785,979,857
27790,972,859
27795,967,860
27800,964,850
27805,965,856
27810,954,856
27815,948,856
27820,951,853
27825,935,852
27830,927,840
27835,914,845
27840,907,848
27845,901,839
27850,895,845
27855,878,835
27860,875,833
27865,874,836
27870,865,828
27875,856,830
27880,847,827
27885,840,821
27890,828,816
27895,824,818
27900,820,815
27905,804,805
27910,798,799
27915,798,802
27920,790,798
27925,786,791
27930,780,788
27935,779,779
27940,773,779
27945,772,778
27950,763,765
27955,756,769
27960,754,765
27965,758,750
27970,749,755
27975,743,744
27980,752,737
27985,747,738
27990,744,727
27995,749,726
28000,751,722
28005,758,714
28010,765,703
28015,754,706
28020,754,700
28025,762,689
28030,758,683
28035,768,681
28040,769,680
28045,777,680
28050,781,672
28055,788,662
28060,801,660
28065,809,659
28070,818,651
28075,813,648
28080,825,643
28085,837,646
28090,847,648
28095,858,641
28100,861,639
28105,871,639
28110,882,632
28115,899,633
28120,908,633
28125,913,643
28130,925,633
28135,928,631
28140,955,633
28145,964,634
28150,967,629
28155,975,637
28160,1001,640
28165,998,642
28170,1008,638
28175,1025,646
28180,1029,650
28185,1048,649
28190,1044,659
28195,1060,658
28200,1072,664
28205,1075,667
28210,1089,677
28215,1097,679
28220,1104,681
28225,1120,695
28230,1115,702
28235,1126,704
28240,1140,707
28245,1131,718
28250,1142,723
28255,1146,729
28260,1152,740
28265,1160,736
28270,1158,747
28275,1167,757
28280,1172,763
28285,1174,764
28290,1171,776
28295,1177,786
28300,1183,793
28305,1183,798
28310,1189,807
28315,1183,812
28320,1183,812
28325,1184,828
28330,1193,824
28335,1187,839
28340,1186,843
28345,1183,849
28350,1178,858
28355,1184,862
28360,1179,865
28365,1182,872
28370,1173,874
28375,1179,880
28380,1175,891
28385,1173,886
28390,1172,898
28395,1165,897
28400,1162,905
28405,1164,910
28410,1160,903
28415,1159,914
28420,1155,910
28425,1150,916
28430,1143,915
28435,1139,915
28440,1143,919
28445,1132,920
28450,1129,920
28455,1124,927
28460,1137,922
28465,1129,922
28470,1120,922
28475,1122,926
28480,1112,923
28485,1113,919
28490,1114,922
28495,1112,918
28500,1116,920
28505,1110,924
28510,1108,919
28515,1097,920
28520,1101,912
28525,1095,910
28530,1094,913
28535,1094,912
28540,1090,911
28545,1088,906
28550,1091,909
28555,1094,910
28560,1077,901
28565,1087,898
28570,1079,892
28575,1086,897
28580,1076,890
28585,1079,892
28590,1078,886
28595,1074,883
28600,1079,879
28605,1065,885
28610,1060,891
28615,1061,877
28620,1059,879
28625,1054,880
28630,1060,874
28635,1047,876
28640,1036,873
28645,1037,874
28650,1034,867
28655,1034,868
28660,1046,865
28665,1027,868
28670,1020,868
28675,1008,865
28680,1002,863
28685,999,860
28690,995,862
28695,987,861
28700,983,861
28705,963,858
28710,967,851
28715,961,855
28720,954,855
28725,947,850
28730,947,848
28735,934,850
28740,920,843
28745,918,840
28750,898,844
28755,896,837
28760,896,837
28765,886,832
28770,872,832
28775,867,831
28780,862,824
28785,846,825
28790,841,822
28795,839,819
28800,826,818
28805,828,814
28810,823,811
28815,816,810
28820,795,802
28825,792,800
28830,785,799
28835,785,792
28840,787,794
28845,783,778
28850,768,780
28855,770,773
28860,767,768
28865,760,764
28870,756,757
28875,752,756
28880,758,747
28885,751,743
28890,752,740
28895,753,736
28900,744,727
28905,752,728
28910,746,722
28915,753,717
28920,757,708
28925,740,700
28930,752,699
28935,762,694
28940,763,691
28945,772,682
28950,781,681
28955,779,675
28960,779,671
28965,792,666
28970,805,666
28975,806,657
28980,811,650
28985,818,650
28990,823,649
28995,845,641
29000,855,643
29005,860,640
29010,860,635
29015,874,635
29020,890,635
29025,900,633
29030,900,634
29035,914,627
29040,931,635
29045,943,629
29050,954,632
29055,963,635
29060,974,639
29065,978,637
29070,985,636
29075,1001,635
29080,1012,649
29085,1023,644
29090,1024,650
29095,1040,652
29100,1049,656
29105,1058,662
29110,1066,667
29115,1074,670
29120,1081,672
29125,1098,680
29130,1103,689
29135,1113,690
29140,1118,698
29145,1122,702
29150,1129,707
29155,1142,712
29160,1141,722
29165,1155,732
29170,1155,739
29175,1161,746
29180,1157,749
29185,1170,760
29190,1178,762
29195,1181,772
29200,1181,779
29205,1181,784
29210,1186,790
29215,1190,800
29220,1182,807
29225,1193,811
29230,1189,819
29235,1194,824
29240,1185,834
29245,1189,835
29250,1187,843
29255,1183,852
29260,1183,854
29265,1185,861
29270,1177,863
29275,1178,873
29280,1176,875
29285,1179,882
29290,1173,883
29295,1172,892
29300,1165,900
29305,1166,901
29310,1164,899
29315,1166,903
29320,1152,900
29325,1160,913
29330,1161,913
29335,1146,915
29340,1145,917
29345,1142,918
29350,1139,921
29355,1145,925
29360,1135,920
29365,1138,922
29370,1130,921
29375,1123,922
29380,1126,927
29385,1127,926
29390,1128,925
29395,1121,920
29400,1121,922
29405,1103,919
29410,1105,922
29415,1112,924
29420,1110,921
29425,1100,918
29430,1104,918
29435,1102,911
29440,1103,913
29445,1097,905
29450,1096,909
29455,1093,906
29460,1085,904
29465,1088,908
29470,1096,895
29475,1090,899
29480,1085,898
29485,1083,896
29490,1086,894
29495,1080,891
29500,1073,890
29505,1071,895
29510,1076,885
29515,1067,882
29520,1061,886
29525,1061,881
29530,1052,878
29535,1055,877
29540,1045,871
29545,1045,877
29550,1039,874
29555,1043,870
29560,1031,875
29565,1031,868
29570,1027,867
29575,1016,870
29580,1013,863
29585,1003,866
29590,1007,859
29595,1005,862
29600,986,856
29605,983,859
29610,978,860
29615,971,854
29620,959,852
29625,952,855
29630,951,854
29635,947,852
29640,933,850
29645,927,853
29650,919,850
29655,914,846
29660,905,846
29665,893,841
29670,888,835
29675,885,835
29680,871,832
29685,864,835
29690,855,826
29695,853,823
29700,841,819
29705,841,824
29710,830,822
29715,825,814
29720,817,810
29725,817,803
29730,807,803
29735,794,800
29740,786,793
29745,782,793
29750,770,781
29755,768,783
29760,767,779
29765,759,773
29770,759,771
29775,751,760
29780,759,755
29785,749,751
29790,755,747
29795,750,742
29800,746,738
29805,751,732
29810,743,726
29815,755,728
29820,761,719
29825,753,717
29830,747,706
29835,754,698
29840,752,692
29845,767,694
29850,772,689
29855,767,680
29860,773,676
29865,779,674
29870,791,663
29875,791,664
29880,802,660
29885,811,659
29890,806,654
29895,820,649
29900,837,649
29905,839,646
29910,838,635
29915,860,639
29920,869,642
29925,865,636
29930,882,633
29935,895,638
29940,911,634
29945,919,635
29950,942,633
29955,948,637
29960,940,636
29965,965,633
29970,981,633
29975,982,640
29980,989,640
29985,1006,642
29990,1013,647
29995,1005,647
30000,1027,646
30005,1038,655
30010,1050,663
30015,1072,666
30020,1069,666
30025,1080,671
30030,1083,676
30035,1097,684
30040,1106,684
30045,1116,692
30050,1128,695
30055,1130,707
30060,1139,712
30065,1144,717
30070,1134,727
30075,1152,729
30080,1152,736
30085,1171,749
30090,1165,752
30095,1172,751
30100,1183,760
30105,1178,772
30110,1187,779
30115,1187,787
30120,1178,792
30125,1180,794
30130,1190,804
30135,1194,815
30140,1186,821
30145,1189,828
30150,1191,838
30155,1183,841
30160,1180,847
30165,1173,853
30170,1186,861
30175,1181,858
30180,1182,867
30185,1177,876
30190,1181,878
30195,1175,883
30200,1167,888
30205,1167,894
30210,1172,898
30215,1169,898
30220,1170,904
30225,1164,909
30230,1166,905
30235,1151,910
30240,1150,917
30245,1146,914
30250,1142,915
30255,1139,920
30260,1139,925
30265,1136,923
30270,1128,925
30275,1128,928
30280,1126,923
30285,1131,929
30290,1113,921
30295,1129,932
30300,1127,922
30305,1099,923
30310,1114,921
30315,1115,921
30320,1106,920
30325,1100,922
30330,1104,916
30335,1103,921
30340,1110,916
30345,1094,910
30350,1095,913
30355,1095,911
30360,1088,912
30365,1096,903
30370,1095,902
30375,1091,902
30380,1090,902
30385,1085,902
30390,1091,900
30395,1075,894
30400,1071,898
30405,1081,891
30410,1076,886
30415,1072,890
30420,1064,890
30425,1073,881
30430,1062,879
30435,1070,882
30440,1056,880
30445,1052,873
30450,1049,872
30455,1054,871
30460,1040,869
30465,1042,871
30470,1034,866
30475,1033,866
30480,1034,871
30485,1023,864
30490,1016,862
30495,1007,862
30500,998,859
30505,997,858
30510,980,854
30515,988,857
30520,973,856
30525,977,859
30530,968,854
30535,949,853
30540,959,848
30545,942,849
30550,944,850
30555,931,849
30560,916,837
30565,906,840
30570,908,840
30575,889,835
30580,886,840
30585,881,834
30590,876,829
30595,870,830
30600,853,826
30605,847,831
30610,841,822
30615,836,816
30620,831,809
30625,818,815
30630,812,810
30635,801,803
30640,801,807
30645,801,790
30650,792,797
30655,785,790
30660,775,785
30665,778,786
30670,783,779
30675,759,771
30680,759,765
30685,751,766
30690,746,758
30695,759,753
30700,754,755
30705,751,744
30710,744,740
30715,745,735
30720,754,723
30725,756,723
30730,750,717
30735,757,715
30740,753,707
30745,761,703
30750,760,696
30755,761,693
30760,765,695
30765,763,688
30770,769,674
30775,778,677
30780,784,667
30785,796,667
30790,796,658
30795,804,653
30800,805,651
30805,816,648
30810,838,651
30815,836,647
30820,854,644
30825,863,640
30830,870,640
30835,879,639
30840,895,639
30845,895,638
30850,906,633
30855,919,631
30860,924,634
30865,940,635
30870,958,634
30875,967,640
30880,969,641
30885,987,642
30890,997,643
30895,1003,644
30900,1018,644
30905,1022,648
30910,1036,656
30915,1039,652
30920,1062,659
30925,1066,668
30930,1066,672
30935,1084,677
30940,1087,679
30945,1098,681
30950,1108,689
30955,1122,692
30960,1124,704
30965,1120,701
30970,1144,713
30975,1139,720
30980,1142,722
30985,1162,731
30990,1162,740
30995,1161,744
31000,1166,750
31005,1177,757
31010,1178,772
31015,1174,775
31020,1188,778
31025,1182,787
31030,1187,797
31035,1183,802
31040,1184,810
31045,1182,824
31050,1189,821
31055,1188,826
31060,1190,837
31065,1186,836
31070,1198,843
31075,1186,857
31080,1178,860
31085,1179,864
31090,1177,867
31095,1185,875
31100,1178,885
31105,1174,884
31110,1175,889
31115,1168,890
31120,1163,894
31125,1162,899
31130,1164,905
31135,1166,906
31140,1155,905
31145,1154,910
31150,1143,918
31155,1150,912
31160,1135,917
31165,1147,920
31170,1133,925
31175,1129,920
31180,1137,923
31185,1124,923
31190,1130,919
31195,1131,927
31200,1116,920
31205,1124,923
31210,1120,922
31215,1111,922
31220,1105,922
31225,1113,923
31230,1100,921
31235,1103,921
31240,1099,924
31245,1098,920
31250,1104,912
31255,1110,911
31260,1099,909
31265,1099,906
31270,1083,904
31275,1083,905
31280,1088,903
31285,1079,901
31290,1089,902
31295,1081,899
31300,1080,894
31305,1078,894
31310,1085,893
31315,1082,891
31320,1073,890
31325,1073,889
31330,1064,883
31335,1061,883
31340,1061,881
31345,1061,875
31350,1063,881
31355,1055,882
31360,1051,872
31365,1047,872
31370,1031,869
31375,1034,873
31380,1024,874
31385,1031,870
31390,1023,862
31395,1017,869
31400,1005,866
31405,1006,859
31410,1013,857
31415,993,861
31420,993,857
31425,981,861
31430,977,858
31435,974,857
31440,959,856
31445,950,854
31450,951,850
31455,938,853
31460,939,848
31465,930,851
31470,919,844
31475,915,847
31480,904,842
31485,889,841
31490,884,834
31495,879,835
31500,869,829
31505,854,819
31510,850,832
31515,849,829
31520,846,824
31525,833,817
31530,818,818
31535,827,819
31540,811,811
31545,810,800
31550,806,806
31555,790,798
31560,788,792
31565,784,787
31570,774,784
31575,764,782
31580,761,775
31585,761,778
31590,757,764
31595,755,760
31600,764,763
31605,755,755
31610,747,745
31615,741,740
31620,743,733
31625,751,731
31630,745,729
31635,744,722
31640,744,710
31645,750,715
31650,753,706
31655,749,701
31660,766,699
31665,765,687
31670,766,686
31675,768,678
31680,772,681
31685,778,674
31690,789,665
31695,802,665
31700,800,660
31705,806,654
31710,804,655
31715,826,649
31720,832,648
31725,837,648
31730,846,643
31735,864,638
31740,871,637
31745,878,641
31750,890,636
31755,903,634
31760,908,630
31765,931,637
31770,937,635
31775,942,631
31780,957,639
31785,969,637
31790,975,636
31795,983,641
31800,988,642
31805,1008,640
31810,1012,646
31815,1024,650
31820,1040,648
31825,1050,657
31830,1058,656
31835,1065,665
31840,1079,665
31845,1093,672
31850,1092,679
31855,1103,686
31860,1101,688
31865,1112,698
31870,1117,700
31875,1125,707
31880,1134,715
31885,1142,719
31890,1149,726
31895,1159,731
31900,1160,740
31905,1164,750
31910,1173,752
31915,1173,758
31920,1173,769
31925,1177,782
31930,1180,789
31935,1173,790
31940,1188,796
31945,1181,802
31950,1191,810
31955,1196,815
31960,1185,823
31965,1187,829
31970,1177,843
31975,1182,836
31980,1183,850
31985,1186,853
31990,1195,859
31995,1182,859
32000,1184,870
32005,1185,877
32009,1178,879
32015,1179,884
32020,1172,891
32025,1177,898
32030,1179,896
32034,1162,893
32040,1164,894
32045,1162,905
32049,1162,906
32055,1149,911
32060,1147,918
32064,1151,914
32070,1143,920
32075,1139,918
32080,1132,921
32085,1138,924
32090,1143,923
32095,1131,921
32100,1130,927
32104,1126,923
32110,1131,922
32115,1119,922
32119,1120,928
32125,1117,921
32130,1117,916
32134,1110,920
32140,1109,919
32145,1111,923
32150,1103,914
32155,1101,920
32159,1098,914
32165,1094,910
32170,1090,916
32174,1095,911
32180,1096,909
32185,1083,902
32189,1091,907
32195,1079,903
32200,1084,901
32205,1076,897
32210,1074,895
32215,1082,889
32220,1078,892
32225,1079,891
32229,1078,888
32235,1061,886
32240,1064,887
32244,1069,885
32250,1060,879
32255,1062,878
32259,1058,871
32265,1049,879
32270,1049,871
32275,1052,875
32280,1039,874
32284,1041,862
32290,1035,870
32295,1029,873
32299,1011,867
32305,1019,865
32310,1011,862
32314,1007,860
32320,1005,861
32325,997,862
32330,991,864
32335,980,858
32340,971,857
32345,967,853
32350,966,855
32354,963,855
32360,949,855
32365,948,849
32369,930,844
32375,934,848
32380,921,848
32384,908,839
32390,914,842
32395,898,837
32400,894,839
32405,872,832
32409,874,832
32415,863,829
32420,856,829
32424,855,823
32430,847,818
32435,829,819
32439,819,821
32445,826,810
32450,807,807
32455,811,806
32460,794,797
32465,793,796
32470,788,788
32475,772,791
32479,771,781
32485,777,781
32490,765,771
32494,764,769
32500,758,762
32505,753,763
32509,753,759
32515,748,754
32520,745,746
32525,749,747
32530,751,737
32534,747,736
32540,752,729
32545,751,719
32549,755,716
32555,751,714
32560,748,703
32564,752,698
32570,769,701
32575,772,692
32580,770,679
32585,783,683
32590,783,674
32595,782,675
32600,790,668
32604,793,662
32610,805,656
32615,812,656
32619,817,655
32625,830,649
32630,833,642
32634,843,640
32640,857,639
32645,867,642
32650,876,637
32655,874,639
32659,885,638
32665,894,629
32670,917,634
32674,919,632
32680,931,632
32685,939,632
32689,951,639
32695,960,630
32700,977,640
32705,975,640
32710,996,643
32715,1003,647
32720,1022,646
32725,1028,653
32729,1039,654
32735,1054,664
32740,1065,661
32744,1065,660
32750,1065,667
32755,1088,676
32759,1095,670
32765,1107,685
32770,1109,694
32775,1108,701
32780,1127,703
32785,1137,707
32790,1136,713
32795,1147,719
32800,1148,726
32805,1149,737
32810,1155,741
32815,1160,752
32820,1158,754
32825,1174,762
32830,1170,770
32835,1174,772
32840,1183,781
32845,1189,795
32850,1185,797
32855,1184,804
32860,1191,815
32865,1183,817
32870,1188,817
32875,1193,830
32880,1191,832
32885,1196,843
32890,1183,846
32895,1192,852
32900,1184,859
32905,1180,867
32910,1180,871
32915,1174,869
32920,1177,876
32925,1175,887
32930,1169,893
32935,1170,892
32940,1162,889
32945,1158,901
32950,1162,902
32955,1158,912
32960,1158,910
32965,1152,916
32970,1153,912
32975,1148,913
32980,1146,917
32985,1137,918
32990,1142,922
32995,1135,922
