timestamp_ms,ir_finger,ir_toe
0,1037,668
5,1048,671
10,1062,674
15,1072,683
20,1089,687
25,1089,690
30,1097,694
35,1114,700
40,1108,717
45,1131,718
50,1127,722
55,1150,729
60,1141,733
65,1165,743
70,1162,753
75,1160,759
80,1171,762
85,1164,775
90,1172,782
95,1180,786
100,1181,798
105,1190,799
110,1188,813
115,1186,814
120,1192,818
125,1186,825
130,1188,838
135,1183,844
140,1190,848
145,1187,856
150,1192,857
155,1188,862
160,1184,861
165,1173,876
170,1187,876
175,1173,881
180,1167,883
185,1182,892
190,1165,898
195,1164,900
200,1156,898
205,1157,905
210,1155,903
215,1144,907
220,1140,908
225,1143,911
230,1142,912
235,1134,916
240,1130,915
245,1134,913
250,1124,916
255,1132,912
260,1114,915
265,1125,914
270,1123,913
275,1115,914
280,1114,913
285,1115,910
290,1110,909
295,1101,904
300,1092,906
305,1103,906
310,1099,899
315,1100,904
320,1095,896
325,1089,895
330,1084,892
335,1089,895
340,1090,893
345,1083,884
350,1087,888
355,1080,882
360,1072,885
365,1064,878
370,1078,880
375,1073,880
380,1058,873
385,1066,878
390,1061,875
395,1055,866
400,1042,861
405,1044,870
410,1041,872
415,1035,863
420,1030,868
425,1034,862
430,1015,856
435,1021,856
440,1011,855
445,1003,859
450,1005,854
455,989,855
460,976,851
465,970,857
470,963,849
475,953,843
480,955,844
485,940,845
490,936,846
495,924,842
500,924,840
505,917,834
510,897,833
515,893,834
520,879,826
525,874,828
530,864,828
535,859,829
540,849,818
545,838,817
550,841,815
555,826,811
560,812,805
565,808,806
570,809,799
575,786,794
580,790,790
585,778,788
590,782,784
595,772,778
600,762,771
605,763,769
610,763,758
615,755,761
620,759,751
625,745,756
630,757,741
635,750,735
640,746,731
645,745,722
650,753,724
655,753,716
660,757,708
665,763,708
670,751,702
675,759,699
680,770,689
685,770,683
690,775,681
695,789,680
700,788,672
705,805,667
710,803,667
715,811,660
720,820,662
725,831,657
730,846,657
735,847,657
740,872,647
745,870,646
750,887,649
755,902,640
760,916,647
765,930,641
770,938,649
775,944,647
780,956,645
785,963,645
790,978,651
795,992,652
800,1002,655
805,1027,659
810,1031,663
815,1034,665
820,1050,669
825,1061,673
830,1068,683
835,1078,683
840,1094,690
845,1101,693
850,1108,699
855,1113,710
860,1125,710
865,1131,719
870,1136,729
875,1146,737
880,1151,747
885,1166,745
890,1162,762
895,1175,766
900,1159,766
905,1183,781
910,1183,779
915,1177,791
920,1183,798
925,1185,805
930,1182,815
935,1188,819
940,1186,822
945,1185,828
950,1192,839
955,1195,849
960,1193,852
965,1181,855
970,1176,857
975,1182,863
980,1179,875
985,1182,877
990,1179,883
995,1175,886
1000,1172,891
1004,1172,895
1010,1167,890
1014,1161,897
1020,1154,905
1025,1150,902
1030,1158,911
1035,1152,908
1040,1142,910
1045,1140,914
1050,1136,913
1055,1131,915
1060,1124,912
1065,1128,909
1070,1134,913
1075,1132,915
1080,1117,919
1085,1116,911
1090,1121,908
1095,1113,905
1100,1116,913
1105,1115,910
1110,1103,913
1115,1101,904
1120,1111,913
1125,1092,903
1130,1099,903
1135,1097,894
1140,1086,895
1145,1087,902
1150,1081,889
1155,1085,892
1160,1087,889
1165,1083,885
1170,1079,887
1175,1071,888
1180,1070,880
1185,1060,880
1190,1077,876
1195,1073,873
1200,1062,876
1205,1060,874
1210,1059,869
1215,1057,868
1220,1045,864
1225,1047,868
1230,1035,867
1235,1033,861
1240,1030,861
1245,1019,862
1250,1013,858
1255,1012,857
1260,1016,860
1265,1001,856
1270,995,851
1275,990,852
1280,985,852
1285,965,852
1290,962,850
1295,953,847
1300,948,845
1305,940,842
1310,929,842
1315,915,839
1320,908,838
1325,899,841
1330,900,835
1335,885,834
1340,878,828
1345,873,823
1350,853,824
1355,848,822
1360,847,813
1365,830,821
1370,826,814
1375,813,809
1380,807,806
1385,804,802
1390,802,798
1395,787,789
1400,790,792
1405,779,782
1410,775,779
1415,767,777
1420,763,770
1425,760,769
1430,748,756
1435,762,752
1440,748,748
1445,756,750
1450,748,742
1455,751,738
1460,742,727
1465,751,722
1470,746,722
1475,752,717
1480,760,709
1485,763,703
1490,758,698
1495,762,693
1500,780,687
1505,775,685
1510,783,680
1515,797,683
1520,800,668
1525,814,673
1530,821,662
1535,817,663
1540,828,661
1545,836,659
1550,852,651
1555,863,656
1560,876,648
1565,881,645
1570,889,645
1575,919,647
1580,919,648
1585,934,650
1590,942,643
1595,960,651
1600,962,653
1605,981,654
1610,992,648
1615,1000,654
1620,1010,661
1625,1029,662
1630,1032,667
1635,1040,667
1640,1056,679
1645,1069,670
1650,1074,684
1655,1080,691
1660,1094,689
1665,1100,695
1670,1112,702
1675,1116,709
1680,1120,712
1685,1133,725
1690,1141,732
1695,1162,740
1700,1147,745
1705,1165,752
1710,1163,759
1715,1167,761
1720,1183,769
1725,1176,779
1730,1169,785
1735,1181,797
1740,1181,798
1745,1199,807
1750,1182,812
1755,1194,825
1760,1177,830
1765,1190,838
1770,1196,838
1775,1183,849
1780,1188,854
1785,1180,858
1790,1186,864
1795,1182,865
1800,1181,869
1805,1170,885
1810,1169,887
1815,1162,888
1820,1167,895
1825,1178,893
1830,1163,896
1835,1161,900
1840,1148,903
1845,1154,906
1850,1137,907
1855,1145,904
1860,1140,910
1865,1148,914
1870,1134,910
1875,1132,917
1880,1122,912
1885,1131,910
1890,1126,913
1895,1117,910
1900,1127,910
1905,1115,907
1910,1116,913
1915,1102,910
1920,1119,907
1925,1097,911
1930,1107,911
1935,1100,908
1940,1096,900
1945,1104,905
1950,1089,899
1955,1092,901
1960,1094,897
1965,1091,898
1970,1080,893
1975,1090,891
1980,1089,885
1985,1083,882
1990,1087,882
1995,1063,883
2000,1069,879
2005,1082,877
2009,1067,878
2015,1078,882
2020,1060,873
2025,1054,872
2029,1053,871
2035,1047,870
2040,1037,860
2045,1043,864
2050,1033,863
2055,1029,861
2060,1022,860
2065,1018,855
2070,1013,858
2075,1009,855
2080,997,855
2085,995,854
2090,987,852
2095,991,856
2100,975,850
2105,967,847
2110,959,853
2115,958,852
2120,943,845
2125,938,842
2130,925,838
2135,922,839
2140,909,838
2145,905,832
2150,895,838
2155,882,830
2160,888,829
2165,872,825
2170,851,825
2175,839,821
2180,836,823
2185,831,816
2190,824,808
2195,813,813
2200,813,801
2205,791,802
2210,792,796
2215,790,791
2220,781,787
2225,782,782
2230,765,780
2235,766,770
2240,762,770
2245,750,766
2250,752,756
2255,764,759
2260,748,749
2265,750,744
2270,746,735
2275,750,735
2280,750,723
2285,741,724
2290,747,717
2295,758,707
2300,756,702
2305,761,707
2310,757,694
2315,771,692
2320,769,683
2325,789,681
2330,786,674
2335,798,675
2340,803,669
2345,812,666
2350,820,663
2355,821,664
2360,840,658
2365,842,654
2370,856,655
2375,867,644
2380,882,651
2385,893,648
2390,905,644
2395,917,650
2400,926,650
2405,942,644
2410,951,649
2415,959,650
2420,965,655
2425,987,651
2430,983,659
2435,1000,653
2440,1026,661
2445,1032,666
2450,1044,665
2455,1055,673
2460,1068,681
2465,1079,686
2470,1079,685
2475,1095,692
2480,1106,699
2485,1113,700
2490,1124,709
2495,1128,709
2500,1138,724
2505,1137,732
2510,1143,730
2515,1150,739
2520,1167,744
2525,1163,756
2530,1161,765
2535,1169,774
2540,1173,778
2545,1179,783
2550,1170,795
2555,1187,803
2560,1182,810
2565,1184,818
2570,1190,825
2575,1191,826
2580,1197,833
2585,1186,845
2590,1183,846
2595,1197,852
2600,1179,857
2605,1186,864
2610,1188,865
2615,1183,878
2620,1171,874
2625,1173,884
2630,1178,887
2635,1165,888
2640,1159,892
2645,1167,893
2650,1161,901
2655,1153,903
2660,1155,903
2665,1154,905
2670,1149,911
2675,1137,916
2680,1140,911
2685,1135,913
2690,1140,916
2695,1133,914
2700,1124,913
2705,1117,915
2710,1123,909
2715,1118,912
2720,1119,916
2725,1117,914
2730,1108,912
2735,1106,905
2740,1101,905
2745,1110,906
2750,1093,910
2755,1099,904
2760,1100,899
2765,1088,896
2770,1090,894
2775,1101,897
2780,1095,895
2785,1093,890
2790,1079,888
2795,1089,891
2800,1084,886
2805,1081,886
2810,1081,881
2815,1077,883
2820,1067,879
2825,1065,874
2830,1071,872
2835,1064,869
2840,1063,875
2845,1054,872
2850,1050,873
2855,1050,873
2860,1041,868
2865,1036,869
2870,1037,864
2875,1020,861
2880,1022,860
2885,1015,858
2890,1006,856
2895,1006,856
2900,994,854
2905,992,851
2910,978,861
2915,986,853
2920,973,846
2925,957,849
2930,953,847
2935,941,842
2940,945,851
2945,926,843
2950,922,838
2955,911,835
2960,895,837
2965,889,829
2970,876,836
2975,873,830
2980,868,827
2985,866,824
2990,852,824
2995,839,817
3000,837,815
3005,822,817
3010,814,816
3015,813,801
3020,808,801
3025,791,796
3030,786,792
3035,785,790
3040,776,785
3045,773,777
3050,766,774
3055,762,773
3060,760,767
3065,753,763
3070,748,759
3075,755,751
3080,742,746
3085,745,736
3090,754,734
3095,742,731
3100,753,724
3105,749,719
3110,749,718
3115,751,708
3120,761,700
3125,759,699
3130,771,689
3135,769,690
3140,767,683
3145,787,677
3150,794,675
3155,799,667
3160,810,668
3165,819,660
3170,823,662
3175,833,656
3180,839,654
3185,847,653
3190,866,650
3195,872,648
3200,890,649
3205,897,644
3210,908,645
3215,918,644
3220,935,646
3225,935,647
3230,959,640
3235,960,643
3240,987,655
3245,987,659
3250,995,652
3255,1021,654
3260,1025,661
3265,1041,670
3270,1055,671
3275,1065,676
3280,1067,678
3285,1071,680
3290,1089,691
3295,1105,701
3300,1106,700
3305,1117,707
3310,1126,712
3315,1127,719
3320,1133,724
3325,1146,729
3330,1148,740
3335,1159,750
3340,1160,753
3345,1173,761
3350,1181,765
3355,1177,775
3360,1178,781
3365,1187,787
3370,1182,794
3375,1175,805
3380,1179,817
3385,1190,814
3390,1192,824
3395,1197,826
3400,1191,843
3405,1189,840
3410,1189,851
3415,1185,856
3420,1190,861
3425,1181,867
3430,1178,867
3435,1179,875
3440,1179,887
3445,1168,886
3450,1175,891
3455,1165,892
3460,1163,896
3465,1171,900
3470,1162,903
3475,1155,904
3480,1153,906
3485,1149,909
3490,1151,909
3495,1144,910
3500,1137,909
3505,1139,918
3510,1130,910
3515,1128,911
3520,1126,920
3525,1124,915
3530,1127,913
3535,1121,911
3540,1112,912
3545,1121,915
3550,1115,910
3555,1105,908
3560,1109,909
3565,1104,905
3570,1106,899
3575,1091,899
3580,1102,897
3585,1102,904
3590,1092,898
3595,1090,893
3600,1087,895
3605,1084,891
3610,1077,890
3615,1073,889
3620,1079,886
3625,1077,879
3630,1085,885
3635,1077,879
3640,1064,875
3645,1075,876
3650,1070,876
3655,1049,875
3660,1052,870
3665,1044,864
3670,1055,866
3675,1047,872
3680,1044,864
3685,1035,863
3690,1029,861
3695,1031,863
3700,1030,859
3705,1016,855
3710,1005,858
3715,1005,861
3720,996,856
3725,982,850
3730,981,854
3735,976,851
3740,972,844
3745,962,849
3750,944,849
3755,935,843
3760,936,844
3765,924,842
3770,920,836
3775,912,841
3780,898,837
3785,888,835
3790,881,829
3795,872,825
3800,858,830
3805,853,828
3810,842,820
3815,844,817
3820,826,812
3825,818,808
3830,816,808
3835,805,804
3840,803,799
3845,790,796
3850,787,785
3855,768,788
3860,775,784
3865,775,775
3870,770,771
3875,758,763
3880,770,763
3885,762,750
3890,757,757
3895,747,743
3900,747,742
3905,750,736
3910,743,730
3915,751,726
3920,752,720
3925,745,716
3930,752,707
3935,755,699
3940,765,699
3945,758,696
3950,764,692
3955,773,685
3960,777,680
3965,792,675
3970,795,673
3975,808,669
3980,811,669
3985,819,661
3990,818,663
3995,837,661
4000,851,655
4005,857,652
4010,868,648
4014,880,648
4019,896,647
4025,910,646
4030,913,649
4035,927,644
4040,933,640
4045,952,650
4050,957,652
4054,980,651
4059,981,649
4065,997,659
4070,1004,653
4075,1014,662
4080,1038,663
4085,1031,666
4090,1046,676
4094,1058,677
4100,1080,680
4105,1084,685
4110,1093,683
4115,1105,696
4120,1114,697
4125,1121,708
4130,1124,719
4135,1136,723
4140,1142,728
4145,1155,737
4150,1153,746
4155,1159,749
4160,1172,755
4165,1170,768
4170,1162,767
4175,1176,776
4180,1186,788
4185,1179,792
4190,1185,797
4195,1182,804
4200,1186,815
4205,1180,825
4210,1187,823
4215,1189,832
4220,1181,840
4225,1191,848
4230,1186,851
4235,1188,862
4240,1183,861
4245,1176,870
4250,1180,870
4255,1174,880
4260,1171,885
4265,1172,888
4270,1165,894
4275,1173,894
4280,1163,899
4285,1158,900
4290,1158,901
4295,1155,910
4300,1146,905
4305,1151,910
4310,1142,908
4315,1138,913
4320,1142,913
4325,1125,918
4330,1134,918
4335,1119,913
4340,1126,916
4345,1121,913
4350,1119,913
4355,1123,912
4360,1113,915
4365,1110,910
4370,1104,914
4375,1117,908
4380,1108,902
4385,1095,900
4390,1098,909
4395,1095,900
4400,1088,904
4405,1096,901
4410,1090,897
4415,1088,895
4420,1086,894
4425,1085,892
4430,1079,888
4435,1082,882
4440,1088,883
4445,1079,884
4450,1065,879
4455,1076,881
4460,1069,879
4465,1053,874
4470,1062,877
4475,1052,873
4480,1062,865
4485,1041,872
4490,1049,867
4495,1049,865
4500,1032,863
4505,1039,859
4510,1019,862
4515,1020,862
4520,1011,857
4525,1014,857
4530,997,860
4535,998,852
4540,990,857
4545,986,852
4550,966,849
4555,973,846
4560,964,848
4565,955,848
4570,947,845
4575,932,846
4580,928,843
4585,921,843
4590,916,840
4595,900,838
4600,888,829
4605,878,826
4610,883,827
4615,871,829
4620,863,822
4625,844,821
4630,845,818
4635,825,812
4640,821,808
4645,815,808
4650,806,806
4655,801,805
4660,797,800
4665,787,796
4670,791,795
4675,777,787
4680,769,779
4685,763,775
4690,756,767
4695,757,761
4700,755,760
4705,757,755
4710,758,746
4715,751,746
4720,754,737
4725,745,734
4730,744,724
4735,756,724
4740,751,715
4745,746,712
4750,754,703
4755,755,698
4760,760,697
4765,768,696
4770,772,693
4775,777,685
4780,781,676
4785,794,671
4790,805,663
4795,806,667
4800,813,665
4805,823,662
4810,828,652
4815,845,654
4820,852,654
4825,858,649
4830,873,649
4835,883,649
4840,903,643
4845,909,652
4850,931,646
4855,919,648
4860,944,644
4865,968,655
4870,961,650
4875,981,650
4880,988,652
4885,1002,655
4890,1012,659
4895,1027,663
4900,1034,667
4905,1047,672
4910,1070,675
4915,1064,678
4920,1083,684
4925,1088,696
4930,1093,689
4935,1107,704
4940,1118,704
4945,1124,714
4950,1132,718
4955,1141,727
4960,1146,735
4965,1146,739
4970,1151,749
4975,1153,755
4980,1165,758
4985,1166,767
4990,1165,778
4995,1174,784
5000,1186,793
5005,1182,795
5010,1182,803
5015,1186,818
5020,1189,824
5025,1196,825
5030,1189,829
5035,1196,840
5040,1181,843
5045,1183,843
5050,1183,857
5055,1176,863
5060,1185,870
5065,1179,876
5070,1184,876
5075,1169,883
5080,1175,892
5085,1171,887
5090,1175,893
5095,1168,897
5100,1164,898
5105,1170,903
5110,1145,902
5115,1149,906
5120,1150,907
5125,1140,912
5130,1142,911
5135,1134,914
5140,1129,912
5145,1131,911
5150,1135,915
5155,1132,909
5160,1124,915
5165,1128,910
5170,1121,912
5175,1108,913
5180,1114,911
5185,1113,914
5190,1109,908
5195,1106,905
5200,1105,906
5205,1098,902
5210,1092,906
5215,1096,905
5220,1103,897
5225,1090,899
5230,1090,894
5235,1089,898
5240,1083,890
5245,1085,889
5250,1079,888
5255,1076,886
5260,1076,877
5265,1075,882
5270,1068,877
5275,1075,874
5280,1064,877
5285,1066,875
5290,1065,869
5295,1062,873
5300,1052,875
5305,1050,871
5310,1043,860
5315,1031,862
5320,1030,869
5325,1030,860
5330,1018,861
5335,1010,854
5340,1005,858
5345,1010,853
5350,1000,853
5355,987,854
5360,980,853
5365,975,854
5370,965,852
5375,969,845
5380,960,851
5385,948,840
5390,935,848
5395,935,844
5400,910,839
5405,908,841
5410,902,837
5415,901,835
5420,886,832
5425,884,827
5430,878,832
5435,860,823
5440,858,825
5445,844,820
5450,831,812
5455,841,814
5460,821,813
5465,821,802
5470,815,798
5475,799,804
5480,792,790
5485,790,791
5490,777,787
5495,770,784
5500,762,778
5505,768,766
5510,764,761
5515,754,757
5520,751,754
5525,757,753
5530,747,743
5535,747,740
5540,755,733
5545,747,731
5550,749,729
5555,746,716
5560,752,718
5565,756,710
5570,759,699
5575,760,694
5580,754,692
5585,770,686
5590,773,684
5595,780,680
5600,796,674
5605,795,668
5610,805,668
5615,821,661
5620,813,668
5625,837,659
5630,843,658
5635,853,656
5640,858,649
5645,872,650
5650,890,647
5655,885,651
5660,908,647
5665,913,650
5670,929,645
5675,937,646
5680,946,652
5685,963,649
5690,972,650
5695,993,658
5700,1001,656
5705,1009,662
5710,1032,655
5715,1040,664
5720,1043,670
5725,1046,668
5730,1057,678
5735,1077,679
5740,1082,688
5745,1096,692
5750,1105,696
5755,1114,702
5760,1127,706
5765,1133,715
5770,1135,720
5775,1141,729
5780,1154,742
5785,1153,742
5790,1158,748
5795,1173,757
5800,1169,757
5805,1169,775
5810,1172,780
5815,1184,787
5820,1187,795
5825,1180,802
5830,1187,808
5835,1191,817
5840,1186,824
5845,1190,827
5850,1187,839
5855,1194,844
5860,1193,851
5865,1185,855
5870,1188,861
5875,1182,863
5880,1172,867
5885,1176,874
5890,1168,871
5895,1173,882
5900,1165,889
5905,1160,890
5910,1157,894
5915,1156,901
5920,1152,905
5925,1155,904
5930,1155,907
5935,1157,904
5940,1148,909
5945,1143,905
5950,1139,916
5955,1143,912
5960,1129,917
5965,1124,914
5970,1123,920
5975,1119,914
5980,1122,915
5985,1122,915
5990,1110,913
5995,1120,908
6000,1116,912
6005,1098,910
6010,1116,907
6015,1108,905
6020,1101,902
6025,1096,909
6030,1107,903
6035,1098,894
6040,1090,895
6045,1088,896
6050,1087,893
6055,1090,896
6060,1086,888
6065,1085,885
6070,1084,889
6075,1075,884
6080,1078,891
6085,1070,878
6090,1075,882
6095,1066,877
6100,1072,874
6105,1063,879
6110,1052,867
6115,1058,871
6120,1053,861
6125,1047,867
6130,1039,862
6135,1045,868
6140,1031,866
6145,1022,859
6150,1016,863
6155,1013,866
6160,1015,862
6165,1007,859
6170,1004,855
6175,986,852
6180,980,849
6185,974,849
6190,967,849
6195,961,845
6200,948,843
6205,936,843
6210,937,839
6215,924,839
6220,928,842
6225,908,836
6230,894,840
6235,899,834
6240,888,831
6245,873,829
6250,871,829
6255,865,819
6260,846,821
6265,845,817
6270,828,815
6275,817,811
6280,815,805
6285,815,810
6290,794,795
6295,792,795
6300,784,787
6305,780,791
6310,779,783
6315,771,782
6320,771,776
6325,767,762
6330,751,763
6335,756,758
6340,753,754
6345,759,742
6350,747,750
6355,749,734
6360,749,734
6365,749,727
6370,745,722
6375,747,716
6380,755,711
6385,763,702
6390,758,699
6395,763,696
6400,777,697
6405,775,682
6410,775,679
6415,782,679
6420,794,680
6425,799,669
6430,805,671
6435,821,662
6440,824,658
6445,835,660
6450,855,648
6455,860,657
6460,867,646
6465,875,648
6470,882,643
6475,898,645
6480,911,648
6485,931,648
6490,933,645
6495,954,649
6500,944,652
6505,967,647
6510,974,649
6515,990,658
6520,1005,656
6525,1008,655
6530,1028,665
6535,1044,665
6540,1051,674
6545,1060,677
6550,1064,681
6555,1082,688
6560,1098,690
6565,1110,695
6570,1107,702
6575,1114,710
6580,1116,715
6585,1129,717
6590,1130,730
6595,1148,734
6600,1157,746
6605,1154,751
6610,1165,757
6615,1164,763
6620,1171,764
6625,1176,779
6630,1185,787
6635,1181,788
6640,1181,798
6645,1181,801
6650,1190,815
6655,1192,820
6660,1187,828
6665,1194,831
6670,1188,843
6675,1183,849
6680,1185,848
6685,1189,861
6690,1186,861
6695,1166,866
6700,1175,878
6705,1180,876
6710,1174,881
6715,1176,884
6720,1163,890
6725,1171,891
6730,1165,901
6735,1165,903
6740,1160,902
6745,1158,901
6750,1147,911
6755,1144,906
6760,1135,906
6765,1133,914
6770,1138,916
6775,1139,916
6780,1130,909
6785,1132,911
6790,1127,915
6795,1114,917
6800,1116,913
6805,1118,914
6810,1116,913
6815,1105,909
6820,1115,910
6825,1109,904
6830,1093,914
6835,1100,903
6840,1095,903
6845,1100,906
6850,1100,903
6855,1102,899
6860,1091,893
6865,1086,892
6870,1083,889
6875,1075,893
6880,1087,890
6885,1074,887
6890,1077,884
6895,1082,881
6900,1080,878
6905,1076,876
6910,1069,878
6915,1061,881
6920,1065,872
6925,1070,870
6930,1061,866
6935,1057,867
6940,1051,866
6945,1033,861
6950,1037,860
6955,1034,866
6960,1030,866
6965,1024,861
6970,1017,860
6975,1009,861
6980,1007,858
6985,996,857
6990,990,851
6995,978,849
7000,984,850
7005,967,852
7010,969,844
7015,951,842
7020,948,845
7025,945,848
7030,937,839
7035,919,844
7040,915,840
7045,905,837
7050,897,834
7055,883,829
7060,880,833
7065,868,828
7070,860,825
7075,848,815
7080,840,820
7085,836,815
7090,833,815
7095,823,809
7100,809,808
7105,803,801
7110,794,795
7115,787,791
7120,791,791
7125,773,780
7130,776,775
7135,771,781
7140,766,771
7145,751,765
7150,758,767
7155,752,755
7160,742,751
7165,752,747
7170,742,743
7175,745,733
7180,744,737
7185,749,730
7190,749,721
7195,750,710
7200,758,706
7205,751,697
7210,762,695
7215,766,688
7220,769,694
7225,773,679
7230,779,677
7235,782,671
7240,798,676
7245,811,672
7250,814,664
7255,815,663
7260,835,652
7265,841,655
7270,852,653
7275,862,650
7280,876,652
7285,886,647
7290,894,648
7295,902,641
7300,926,645
7305,928,643
7310,945,647
7315,949,655
7320,960,646
7325,972,652
7330,985,655
7335,1005,655
7340,1012,660
7345,1025,659
7350,1041,663
7355,1046,669
7360,1049,674
7365,1068,675
7370,1082,682
7375,1080,687
7380,1095,694
7385,1101,703
7390,1118,708
7395,1128,709
7400,1135,722
7405,1141,721
7410,1142,733
7415,1148,740
7420,1148,742
7425,1155,751
7430,1167,758
7435,1170,766
7440,1174,774
7445,1178,782
7450,1175,790
7455,1187,795
7460,1187,802
7465,1181,807
7470,1190,815
7475,1184,818
7480,1189,829
7485,1190,837
7490,1185,848
7495,1181,847
7500,1197,853
7505,1175,857
7510,1178,868
7515,1182,871
7520,1174,874
7525,1178,879
7530,1180,878
7535,1171,892
7540,1171,891
7545,1150,902
7550,1164,896
7555,1149,901
7560,1156,900
7565,1156,905
7570,1144,905
7575,1136,907
7580,1134,909
7585,1144,912
7590,1142,918
7595,1131,914
7600,1140,910
7605,1122,912
7610,1125,909
7615,1121,913
7620,1118,916
7625,1109,916
7630,1105,911
7635,1101,907
7640,1108,912
7645,1107,910
7650,1106,911
7655,1100,901
7660,1097,900
7665,1098,901
7670,1087,905
7675,1096,898
7680,1088,897
7685,1091,893
7690,1079,896
7695,1084,896
7700,1085,887
7705,1079,882
7710,1071,885
7715,1074,883
7720,1064,875
7725,1063,876
7730,1064,877
7735,1057,878
7740,1060,874
7745,1058,869
7750,1061,873
7755,1051,866
7760,1055,871
7765,1050,864
7770,1033,865
7775,1020,864
7780,1029,858
7785,1017,859
7790,1011,858
7795,1009,861
7800,1001,855
7805,994,852
7810,985,852
7815,982,850
7820,973,849
7825,966,849
7830,958,851
7835,950,847
7840,944,847
7845,929,836
7850,925,839
7855,918,841
7860,896,841
7865,904,832
7870,889,836
7875,872,827
7880,884,825
7885,864,828
7890,852,824
7895,848,818
7900,842,816
7905,822,810
7910,828,813
7915,813,807
7920,802,802
7925,803,799
7930,797,793
7935,788,788
7940,782,794
7945,773,778
7950,755,774
7955,758,769
7960,765,764
7965,759,764
7970,759,755
7975,745,754
7980,752,745
7985,751,744
7990,741,735
7995,750,736
8000,746,726
8005,742,721
8010,750,718
8015,747,712
8020,767,701
8025,756,697
8029,761,692
8035,766,687
8039,774,683
8045,787,683
8050,779,676
8055,782,668
8060,800,668
8064,807,670
8070,813,656
8074,824,658
8080,839,644
8085,850,652
8090,856,657
8095,881,649
8100,873,649
8105,891,642
8109,903,647
8115,915,645
8119,920,645
8125,934,646
8130,937,645
8135,961,647
8140,970,650
8145,979,648
8150,992,655
8154,997,660
8160,1011,663
8164,1030,667
8170,1033,667
8175,1052,668
8180,1063,678
8185,1078,678
8189,1078,687
8195,1100,690
8200,1100,695
8205,1112,704
8210,1115,711
8215,1126,717
8220,1138,725
8225,1142,727
8230,1148,738
8235,1156,750
8240,1158,750
8245,1169,755
8250,1163,764
8255,1177,768
8260,1174,776
8265,1174,786
8270,1174,790
8275,1181,799
8280,1184,811
8285,1189,811
8290,1184,826
8295,1192,824
8300,1185,836
8305,1187,843
8310,1187,842
8315,1193,858
8320,1184,859
8325,1183,863
8330,1185,873
8335,1173,872
8340,1179,880
8345,1173,887
8350,1173,886
8355,1183,891
8360,1167,893
8365,1166,898
8370,1152,899
8375,1162,898
8380,1150,900
8385,1151,905
8390,1148,911
8395,1153,913
8400,1138,912
8405,1134,916
8410,1142,917
8415,1128,913
8420,1127,918
8425,1120,920
8430,1126,912
8435,1122,912
8440,1114,915
8445,1104,913
8450,1104,907
8455,1115,912
8460,1112,913
8465,1114,913
8470,1102,909
8475,1102,910
8480,1101,903
8485,1093,901
8490,1088,902
8495,1089,897
8500,1092,899
8505,1077,890
8510,1089,887
8515,1079,892
8520,1089,885
8525,1082,883
8530,1076,877
8535,1071,882
8540,1073,879
8545,1075,877
8550,1071,875
8555,1063,874
8560,1058,875
8565,1051,870
8570,1057,866
8575,1056,870
8580,1041,863
8585,1035,861
8590,1034,862
8595,1033,855
8600,1017,859
8605,1012,855
8610,1008,861
8615,996,865
8620,991,862
8625,990,853
8630,979,858
8635,986,849
8640,964,847
8645,953,846
8650,954,840
8655,946,849
8660,927,845
8665,926,842
8670,925,842
8675,912,839
8680,901,833
8685,895,832
8690,883,834
8695,878,828
8700,872,826
8705,861,825
8710,836,816
8715,838,815
8720,839,814
8725,814,811
8730,817,810
8735,815,805
8740,807,804
8745,802,796
8750,786,792
8755,781,788
8760,782,780
8765,775,777
8770,771,780
8775,762,770
8780,764,764
8785,748,760
8790,754,751
8795,752,749
8800,746,739
8805,750,737
8810,750,736
8815,755,729
8820,738,725
8825,758,712
8830,756,711
8835,755,709
8840,760,701
8845,757,693
8850,761,685
8855,777,683
8860,777,683
8865,794,679
8870,785,672
8875,795,668
8880,808,668
8885,814,665
8890,818,658
8895,842,657
8900,840,657
8905,855,649
8910,860,650
8915,878,647
8920,883,649
8925,897,650
8930,915,648
8935,912,643
8940,929,645
8945,943,649
8950,961,650
8955,963,650
8960,984,654
8965,991,651
8970,1002,654
8975,1017,659
8980,1023,664
8985,1035,669
8990,1042,671
8995,1059,679
9000,1073,677
9005,1077,687
9010,1075,690
9015,1097,696
9020,1118,704
9025,1123,707
9030,1122,711
9035,1132,716
9040,1139,724
9045,1145,726
9050,1156,742
9055,1155,748
9060,1160,749
9065,1167,759
9070,1181,768
9075,1175,776
9080,1180,784
9085,1176,786
9090,1181,800
9095,1177,800
9100,1183,809
9105,1188,815
9110,1195,822
9115,1192,828
9120,1190,836
9125,1184,844
9130,1185,851
9135,1178,853
9140,1182,863
9145,1191,869
9150,1185,875
9155,1172,875
9160,1174,886
9165,1174,883
9170,1167,889
9175,1162,891
9180,1173,899
9185,1155,905
9190,1153,897
9195,1159,902
9200,1152,910
9205,1148,905
9210,1140,916
9215,1141,916
9220,1141,918
9225,1126,914
9230,1134,914
9235,1127,911
9240,1131,917
9245,1128,913
9250,1121,914
9255,1118,909
9260,1117,908
9265,1115,911
9270,1114,911
9275,1107,909
9280,1109,905
9285,1096,908
9290,1096,904
9295,1099,904
9300,1102,902
9305,1095,905
9310,1087,898
9315,1100,891
9320,1094,890
9325,1087,891
9330,1092,887
9335,1077,890
9340,1071,887
9345,1080,880
9350,1070,881
9355,1074,881
9360,1075,879
9365,1060,869
9370,1066,878
9375,1054,873
9380,1063,871
9385,1053,869
9390,1042,868
9395,1042,867
9400,1045,864
9405,1035,862
9410,1035,867
9415,1032,866
9420,1017,859
9425,1014,854
9430,1018,859
9435,995,855
9440,986,854
9445,987,847
9450,979,851
9455,961,848
9460,959,854
9465,949,849
9470,950,849
9475,944,848
9480,933,841
9485,916,845
9490,913,839
9495,912,837
9500,897,839
9505,894,833
9510,883,836
9515,871,826
9520,865,823
9525,852,822
9530,846,817
9535,834,818
9540,832,819
9545,825,806
9550,812,806
9555,815,808
9560,796,797
9565,792,794
9570,782,792
9575,785,784
9580,781,780
9585,770,778
9590,764,778
9595,759,766
9600,758,762
9605,760,753
9610,754,748
9615,745,744
9620,749,732
9625,740,738
9630,746,731
9635,746,724
9640,742,716
9645,741,714
9650,758,713
9655,758,701
9660,769,693
9665,764,690
9670,758,689
9675,774,689
9680,779,678
9685,780,674
9690,797,671
9695,798,673
9700,804,662
9705,818,658
9710,824,655
9715,843,653
9720,849,653
9725,871,653
9730,872,645
9735,874,646
9740,892,649
9745,898,645
9750,915,650
9755,933,651
9760,944,645
9765,954,644
9770,960,650
9775,966,654
9780,997,653
9785,993,655
9790,1008,653
9795,1028,661
9800,1031,665
9805,1048,669
9810,1055,674
9815,1067,681
9820,1070,681
9825,1087,691
9830,1082,692
9835,1109,694
9840,1107,706
9845,1125,716
9850,1121,719
9855,1135,724
9860,1149,736
9865,1146,732
9870,1156,742
9875,1159,749
9880,1162,758
9885,1171,765
9890,1173,776
9895,1171,779
9900,1176,790
9905,1183,791
9910,1184,800
9915,1186,804
9920,1189,814
9925,1188,822
9930,1183,824
9935,1188,844
9940,1190,838
9945,1193,847
9950,1187,851
9955,1180,856
9960,1176,863
9965,1175,866
9970,1185,874
9975,1175,880
9980,1179,886
9985,1177,888
9990,1164,894
9995,1167,896
10000,1166,893
10005,1156,902
10010,1152,901
10015,1154,902
10020,1149,908
10025,1154,908
10030,1136,912
10035,1140,911
10040,1135,912
10045,1139,910
10050,1127,908
10055,1124,914
10060,1129,918
10065,1122,920
10070,1115,918
10075,1113,909
10080,1101,914
10085,1104,912
10090,1106,908
10095,1103,909
10100,1112,903
10105,1104,903
10110,1095,901
10115,1095,901
10120,1097,898
10125,1093,899
10130,1094,891
10135,1091,893
10140,1082,894
10145,1084,889
10150,1087,894
10155,1081,892
10160,1078,879
10165,1080,880
10170,1065,878
10175,1075,879
10180,1068,882
10185,1056,880
10190,1060,870
10195,1051,873
10200,1060,867
10205,1048,870
10210,1048,868
10215,1036,867
10220,1034,862
10225,1032,865
10230,1031,867
10235,1020,861
10240,1010,864
10245,1011,855
10250,1003,858
10255,1002,852
10260,982,856
10265,986,851
10270,976,847
10275,958,845
10280,957,847
10285,951,845
10290,947,853
10295,945,846
10300,926,836
10305,922,845
10310,912,842
10315,896,838
10320,881,834
10325,882,839
10330,865,832
10335,859,830
10340,854,827
10345,843,818
10350,851,814
10355,839,810
10360,821,806
10365,813,812
10370,801,797
10375,796,806
10380,792,797
10385,782,796
10390,792,787
10395,777,787
10400,770,780
10405,767,768
10410,766,769
10415,760,765
10420,750,757
10425,747,753
10430,749,748
10435,749,744
10440,745,737
10445,743,731
10450,746,726
10455,752,716
10460,749,717
10465,741,711
10470,760,704
10475,770,702
10480,773,694
10485,760,685
10490,770,689
10495,786,684
10500,778,671
10505,793,676
10510,805,665
10515,809,665
10520,813,662
10525,828,658
10530,844,655
10535,855,660
10540,850,653
10545,873,650
10550,879,650
10555,899,652
10560,902,650
10565,910,646
10570,920,647
10575,932,647
10580,939,648
10585,961,643
10590,971,648
10595,987,652
10600,991,652
10605,1008,655
10610,1022,656
10615,1035,661
10620,1041,665
10625,1051,677
10630,1059,677
10635,1067,681
10640,1079,682
10645,1098,688
10650,1101,691
10655,1109,701
10660,1113,705
10665,1122,714
10670,1127,724
10675,1132,722
10680,1146,735
10685,1149,742
10690,1164,746
10695,1164,755
10700,1173,760
10705,1173,774
10710,1172,776
10715,1177,785
10720,1186,789
10725,1175,802
10730,1185,805
10735,1188,812
10740,1188,814
10745,1195,833
10750,1186,831
10755,1174,841
10760,1184,844
10765,1189,856
10770,1190,847
10775,1185,861
10780,1176,867
10785,1183,870
10790,1176,879
10795,1179,882
10800,1178,890
10805,1168,887
10810,1167,893
10815,1165,898
10820,1159,900
10825,1158,900
10830,1154,905
10835,1141,909
10840,1151,910
10845,1139,905
10850,1142,911
10855,1133,911
10860,1142,922
10865,1139,916
10870,1132,915
10875,1130,917
10880,1122,912
10885,1121,913
10890,1118,912
10895,1109,915
10900,1115,912
10905,1111,913
10910,1106,908
10915,1101,906
10920,1100,911
10925,1097,903
10930,1093,902
10935,1091,901
10940,1091,897
10945,1085,903
10950,1095,896
10955,1085,894
10960,1091,895
10965,1088,888
10970,1084,890
10975,1071,890
10980,1072,877
10985,1068,885
10990,1081,881
10995,1074,877
11000,1061,880
11005,1065,875
11010,1060,870
11015,1056,871
11020,1049,869
11025,1042,861
11030,1040,867
11035,1041,865
11040,1038,862
11045,1034,854
11050,1016,861
11055,1014,862
11060,1009,857
11065,1008,853
11070,998,854
11075,988,857
11080,979,853
11085,972,849
11090,977,851
11095,958,849
11100,958,851
11105,949,843
11110,947,838
11115,924,842
11120,920,840
11125,920,839
11130,903,835
11135,895,836
11140,896,839
11145,876,828
11150,867,829
11155,869,821
11160,853,818
11165,839,819
11170,833,816
11175,831,809
11180,816,803
11185,811,805
11190,803,800
11195,799,792
11200,787,795
11205,782,786
11210,770,788
11215,770,781
11220,763,776
11225,773,768
11230,758,766
11235,771,757
11240,746,755
11245,746,747
11250,746,751
11255,740,738
11260,751,734
11265,758,728
11270,756,721
11275,750,719
11280,760,716
11285,751,714
11290,751,708
11295,759,697
11300,762,689
11305,770,687
11310,780,681
11315,786,678
11320,789,675
11325,801,668
11330,807,665
11335,810,660
11340,820,660
11345,841,656
11350,850,653
11355,846,647
11360,867,653
11365,874,643
11370,878,646
11375,888,647
11380,906,649
11385,918,650
11390,932,648
11395,940,649
11400,952,647
11405,966,649
11410,982,656
11415,991,655
11420,995,659
11425,1008,657
11430,1016,661
11435,1032,662
11440,1053,668
11445,1059,676
11450,1074,683
11455,1079,680
11460,1078,693
11465,1089,693
11470,1105,701
11475,1126,704
11480,1119,716
11485,1130,718
11490,1130,720
11495,1144,732
11500,1157,733
11505,1151,743
11510,1159,754
11515,1161,761
11520,1167,768
11525,1174,775
11530,1171,784
11535,1186,784
11540,1185,797
11545,1176,799
11550,1190,807
11555,1185,816
11560,1193,820
11565,1194,820
11570,1193,836
11575,1182,845
11580,1180,851
11585,1194,852
11590,1175,859
11595,1179,867
11600,1186,871
11605,1173,871
11610,1173,877
11615,1175,888
11620,1174,891
11625,1174,895
11630,1162,898
11635,1163,895
11640,1160,904
11645,1155,902
11650,1158,909
11655,1146,909
11660,1155,907
11665,1141,913
11670,1144,914
11675,1132,918
11680,1135,912
11685,1134,916
11690,1127,920
11695,1123,919
11700,1122,920
11705,1116,909
11710,1120,916
11715,1109,909
11720,1104,912
11725,1107,911
11730,1100,908
11735,1102,902
11740,1103,902
11745,1105,898
11750,1099,898
11755,1093,901
11760,1087,899
11765,1097,897
11770,1092,893
11775,1085,892
11780,1084,889
11785,1078,880
11790,1082,891
11795,1078,884
11800,1078,881
11805,1076,879
11810,1071,880
11815,1059,880
11820,1060,874
11825,1063,871
11830,1057,871
11835,1044,872
11840,1053,868
11845,1043,867
11850,1039,863
11855,1039,863
11860,1036,864
11865,1028,861
11870,1015,861
11875,1017,857
11880,1009,855
11885,1003,853
11890,1004,853
11895,990,848
11900,979,857
11905,968,850
11910,967,850
11915,963,848
11920,947,846
11925,955,845
11930,930,845
11935,922,844
11940,909,831
11945,909,840
11950,899,828
11955,887,833
11960,890,825
11965,867,827
11970,854,826
11975,849,823
11980,838,821
11985,841,819
11990,825,811
11995,824,808
12000,814,807
12005,810,803
12010,803,799
12015,796,797
12020,783,792
12025,781,788
12030,785,782
12035,765,778
12040,760,773
12045,763,766
12050,759,763
12055,757,756
12060,753,747
12065,749,748
12070,754,743
12075,745,732
12080,748,732
12085,755,727
12090,746,716
12095,752,719
12100,750,711
12105,760,702
12110,762,700
12115,759,698
12120,767,692
12125,777,686
12130,780,682
12135,785,672
12140,795,673
12145,814,668
12150,814,661
12155,822,664
12160,820,655
12165,835,655
12170,848,651
12175,854,648
12180,868,652
12185,879,650
12190,905,650
12195,895,649
12200,917,649
12205,914,651
12210,937,649
12215,951,654
12220,963,648
12225,972,651
12230,986,658
12235,1006,654
12240,1012,662
12245,1022,663
12250,1036,662
12255,1032,671
12260,1048,670
12265,1056,678
12270,1079,681
12275,1080,687
12280,1095,690
12285,1099,697
12290,1108,704
12295,1111,712
12300,1118,718
12305,1135,729
12310,1145,724
12315,1150,732
12320,1151,744
12325,1158,750
12330,1159,755
12335,1162,764
12340,1173,771
12345,1180,781
12350,1183,784
12355,1183,793
12360,1183,796
12365,1190,808
12370,1185,813
12375,1181,823
12380,1189,823
12385,1196,831
12390,1188,840
12395,1179,848
12400,1178,851
12405,1182,862
12410,1182,864
12415,1176,868
12420,1176,866
12425,1181,874
12430,1169,880
12435,1181,886
12440,1170,888
12445,1172,894
12450,1159,896
12455,1161,905
12460,1154,904
12465,1153,905
12470,1144,904
12475,1137,909
12480,1143,912
12485,1136,908
12490,1139,906
12495,1136,914
12500,1137,915
12505,1130,914
12510,1143,914
12515,1121,917
12520,1123,918
12525,1113,911
12530,1116,914
12535,1120,911
12540,1116,907
12545,1110,909
12550,1110,904
12555,1101,903
12560,1098,900
12565,1106,902
12570,1098,899
12575,1099,899
12580,1092,892
12585,1091,895
12590,1077,895
12595,1086,888
12600,1082,888
12605,1075,887
12610,1076,876
12615,1087,886
12620,1075,884
12625,1060,878
12630,1055,882
12635,1068,874
12640,1055,867
12645,1065,868
12650,1056,870
12655,1055,871
12660,1045,870
12665,1041,859
12670,1031,865
12675,1019,863
12680,1034,859
12685,1020,858
12690,1023,859
12695,1007,858
12700,995,853
12705,994,854
12710,994,854
12715,976,853
12720,983,845
12725,960,847
12730,963,845
12735,958,849
12740,942,840
12745,941,842
12750,924,839
12755,922,840
12760,909,838
12765,899,832
12770,894,837
12775,882,829
12780,879,829
12785,861,826
12790,863,831
12795,850,818
12800,831,821
12805,828,819
12810,831,811
12815,818,805
12820,814,805
12825,809,803
12830,800,798
12835,786,793
12840,796,788
12845,780,782
12850,772,779
12855,767,775
12860,759,768
12865,768,764
12870,750,760
12875,770,753
12880,748,751
12885,754,743
12890,751,735
12895,743,734
12900,758,729
12905,751,723
12910,753,713
12915,755,714
12920,755,702
12925,761,704
12930,757,702
12935,762,690
12940,768,682
12945,790,685
12950,782,681
12955,790,675
12960,792,674
12965,801,668
12970,820,668
12975,827,653
12980,835,656
12985,832,654
12990,859,652
12995,865,652
13000,879,646
13005,889,654
13010,900,647
13015,907,648
13020,909,641
13025,935,651
13030,943,648
13035,961,650
13040,975,655
13045,988,653
13050,988,651
13055,1011,657
13060,1022,658
13065,1018,658
13070,1031,663
13075,1046,673
13080,1061,670
13085,1069,673
13090,1071,680
13095,1081,687
13100,1091,696
13105,1095,699
13110,1115,708
13115,1129,709
13120,1132,718
13125,1135,724
13130,1139,736
13135,1145,745
13140,1164,750
13145,1159,746
13150,1164,762
13155,1173,765
13160,1177,775
13165,1170,777
13170,1167,793
13175,1178,796
13180,1187,809
13185,1188,814
13190,1191,821
13195,1185,825
13200,1186,832
13205,1192,840
13210,1189,840
13215,1173,852
13220,1176,857
13225,1182,862
13230,1187,861
13235,1183,871
13240,1185,879
13245,1174,881
13250,1174,878
13255,1176,886
13260,1163,889
13265,1164,898
13270,1161,893
13275,1159,905
13280,1159,906
13285,1155,904
13290,1150,905
13295,1146,912
13300,1139,913
13305,1139,915
13310,1134,918
13315,1134,912
13320,1128,911
13325,1119,916
13330,1128,916
13335,1127,916
13340,1117,913
13345,1117,914
13350,1116,914
13355,1118,913
13360,1108,909
13365,1105,910
13370,1107,912
13375,1099,903
13380,1100,908
13385,1094,897
13390,1095,898
13395,1096,890
13400,1096,896
13405,1088,895
13410,1095,894
13415,1071,894
13420,1081,887
13425,1074,886
13430,1080,882
13435,1080,884
13440,1077,877
13445,1070,879
13450,1070,878
13455,1074,880
13460,1063,873
13465,1053,874
13470,1048,860
13475,1049,867
13480,1044,866
13485,1044,863
13490,1029,865
13495,1032,865
13500,1026,858
13505,1013,862
13510,1018,859
13515,1007,856
13520,1002,850
13525,998,850
13530,976,847
13535,986,853
13540,970,852
13545,957,849
13550,953,844
13555,949,844
13560,937,845
13565,937,839
13570,932,839
13575,919,837
13580,907,836
13585,889,831
13590,889,839
13595,883,824
13600,869,823
13605,852,827
13610,853,821
13615,837,820
13620,835,818
13625,835,808
13630,819,805
13635,809,810
13640,802,806
13645,797,799
13650,798,793
13655,792,789
13660,779,788
13665,768,783
13670,768,774
13675,767,773
13680,765,770
13685,758,757
13690,750,755
13695,753,749
13700,744,749
13705,747,743
13710,746,737
13715,753,734
13720,756,729
13725,745,719
13730,761,711
13735,755,709
13740,760,698
13745,760,703
13750,772,694
13755,766,690
13760,773,685
13765,774,674
13770,784,675
13775,799,672
13780,807,673
13785,798,665
13790,826,661
13795,829,660
13800,838,653
13805,847,655
13810,851,643
13815,874,646
13820,876,651
13825,889,648
13830,907,648
13835,926,643
13840,928,643
13845,935,648
13850,951,645
13855,959,650
13860,978,654
13865,984,655
13870,1006,651
13875,1006,659
13880,1030,659
13885,1038,658
13890,1038,670
13895,1049,673
13900,1068,680
13905,1073,681
13910,1084,683
13915,1091,693
13920,1104,701
13925,1111,706
13930,1124,721
13935,1132,715
13940,1131,722
13945,1146,732
13950,1152,735
13955,1152,739
13960,1165,752
13965,1161,762
13970,1174,764
13975,1175,781
13980,1170,782
13985,1176,788
13990,1180,793
13995,1178,798
14000,1184,807
14005,1186,813
14010,1192,823
14015,1186,824
14020,1192,831
14025,1185,843
14030,1190,849
14035,1182,855
14040,1184,859
14045,1183,871
14050,1181,869
14055,1181,876
14060,1171,879
14065,1173,886
14070,1169,889
14075,1162,890
14080,1169,898
14085,1163,900
14090,1156,899
14095,1162,905
14100,1153,906
14105,1158,904
14110,1139,908
14115,1141,907
14120,1139,916
14125,1132,911
14130,1131,911
14135,1134,914
14140,1121,916
14145,1114,914
14150,1109,918
14155,1117,917
14160,1111,911
14165,1104,915
14170,1107,911
14175,1107,915
14180,1104,906
14185,1102,907
14190,1097,905
14195,1105,902
14200,1102,905
14205,1103,901
14210,1086,898
14215,1089,895
14220,1085,892
14225,1085,892
14230,1081,887
14235,1083,888
14240,1081,884
14245,1075,882
14250,1074,881
14255,1073,880
14260,1079,877
14265,1066,880
14270,1059,874
14275,1064,872
14280,1055,879
14285,1041,871
14290,1048,867
14295,1054,868
14300,1026,865
14305,1036,861
14310,1032,867
14315,1023,861
14320,1026,860
14325,1003,855
14330,1021,860
14335,996,860
14340,994,850
14345,992,857
14350,983,852
14355,974,853
14360,964,844
14365,963,846
14370,950,847
14375,944,846
14380,932,845
14385,926,839
14390,921,846
14395,917,836
14400,908,837
14405,894,830
14410,880,828
14415,883,828
14420,865,825
14425,858,820
14430,848,818
14435,847,817
14440,830,817
14445,825,809
14450,815,806
14455,808,808
14460,805,796
14465,799,795
14470,791,790
14475,779,788
14480,769,784
14485,768,780
14490,761,777
14495,776,769
14500,768,765
14505,749,762
14510,762,751
14515,744,745
14520,745,743
14525,749,735
14530,737,730
14535,739,727
14540,750,723
14545,756,715
14550,753,715
14555,752,706
14560,756,700
14565,752,692
14570,768,693
14575,768,688
14580,781,687
14585,796,681
14590,791,671
14595,800,669
14600,807,665
14605,820,661
14610,823,661
14615,834,658
14620,851,653
14625,862,651
14630,858,650
14635,881,650
14640,890,650
14645,904,647
14650,905,643
14655,916,647
14660,939,646
14665,942,654
14670,971,645
14675,978,649
14680,985,647
14685,997,652
14690,1005,658
14695,1013,660
14700,1026,662
14705,1032,670
14710,1042,665
14715,1069,671
14720,1068,680
14725,1084,685
14730,1094,695
14735,1094,693
14740,1114,699
14745,1117,704
14750,1129,710
14755,1127,717
14760,1140,729
14765,1137,734
14770,1145,739
14775,1154,748
14780,1160,755
14785,1164,763
14790,1172,762
14795,1182,780
14800,1177,782
14805,1176,790
14810,1190,794
14815,1189,805
14820,1186,811
14825,1187,824
14830,1179,828
14835,1189,833
14840,1185,838
14845,1194,842
14850,1183,848
14855,1188,858
14860,1186,860
14865,1187,870
14870,1182,870
14875,1179,878
14880,1178,881
14885,1167,886
14890,1165,896
14895,1170,892
14900,1165,896
14905,1155,901
14910,1151,906
14915,1151,910
14920,1153,906
14925,1149,913
14930,1142,907
14935,1157,913
14940,1146,908
14945,1141,912
14950,1136,912
14955,1128,915
14960,1131,913
14965,1129,916
14970,1128,910
14975,1119,912
14980,1118,906
14985,1105,913
14990,1105,911
14995,1105,906
15000,1109,904
15005,1106,905
15010,1105,903
15015,1094,900
15020,1100,903
15025,1091,901
15030,1096,893
15035,1093,894
15040,1093,896
15045,1091,893
15050,1086,888
15055,1080,885
15060,1080,886
15065,1084,880
15070,1079,884
15075,1063,879
15080,1072,878
15085,1068,876
15090,1063,876
15095,1054,870
15100,1043,871
15105,1042,869
15110,1033,872
15115,1042,864
15120,1044,864
15125,1036,865
15130,1026,862
15135,1018,858
15140,1016,862
15145,1018,853
15150,995,852
15155,997,854
15160,994,854
15165,980,850
15170,980,853
15175,968,856
15180,966,848
15185,959,847
15190,942,846
15195,937,845
15200,926,844
15205,927,842
15210,914,844
15215,905,837
15220,896,835
15225,885,838
15230,877,830
15235,866,831
15240,862,821
15245,850,823
15250,840,819
15255,845,817
15260,828,806
15265,819,809
15270,811,806
15275,811,806
15280,801,795
15285,795,793
15290,779,793
15295,772,780
15300,769,782
15305,766,773
15310,751,770
15315,764,761
15320,748,759
15325,752,750
15330,756,752
15335,752,744
15340,752,738
15345,748,732
15350,753,728
15355,749,727
15360,751,720
15365,751,715
15370,758,710
15375,759,705
15380,758,701
15385,764,690
15390,771,689
15395,775,686
15400,781,676
15405,795,678
15410,800,670
15415,808,671
15420,819,660
15425,820,663
15430,829,659
15435,842,657
15440,846,657
15445,865,656
15450,870,651
15455,890,651
15460,897,647
15465,906,644
15470,912,645
15475,930,646
15480,940,645
15485,946,650
15490,958,652
15495,983,648
15500,994,655
15505,999,657
15510,1025,660
15515,1030,660
15520,1036,666
15525,1043,667
15530,1053,671
15535,1069,679
15540,1070,680
15545,1095,686
15550,1097,697
15555,1109,699
15560,1109,704
15565,1115,715
15570,1125,717
15575,1134,722
15580,1135,725
15585,1142,738
15590,1152,744
15595,1163,749
15600,1157,761
15605,1171,765
15610,1174,773
15615,1176,782
15620,1183,787
15625,1183,793
15630,1182,801
15635,1195,804
15640,1182,815
15645,1186,823
15650,1186,828
15655,1184,832
15660,1194,845
15665,1191,851
15670,1187,853
15675,1184,860
15680,1179,864
15685,1180,865
15690,1173,880
15695,1182,876
15700,1173,880
15705,1171,890
15710,1175,895
15715,1164,900
15720,1155,898
15725,1161,898
15730,1163,904
15735,1152,906
15740,1155,905
15745,1143,910
15750,1138,911
15755,1139,919
15760,1134,916
15765,1136,912
15770,1129,913
15775,1128,910
15780,1133,916
15785,1117,909
15790,1115,914
15795,1109,917
15800,1106,914
15805,1104,912
15810,1109,912
15815,1098,909
15820,1101,906
15825,1095,906
15830,1099,901
15835,1088,906
15840,1095,897
15845,1097,896
15850,1087,896
15855,1087,893
15860,1077,896
15865,1094,887
15870,1075,886
15875,1069,886
15880,1074,880
15885,1073,880
15890,1076,877
15895,1077,881
15900,1071,874
15905,1067,873
15910,1054,869
15915,1062,869
15920,1047,871
15925,1046,865
15930,1047,868
15935,1043,867
15940,1033,862
15945,1033,862
15950,1029,864
15955,1015,859
15960,1010,858
15965,1006,856
15970,999,855
15975,992,853
15980,992,851
15985,980,851
15990,978,851
15995,965,852
16000,954,851
16004,949,847
16010,939,845
16015,933,843
16020,933,847
16024,921,841
16030,901,834
16035,900,833
16040,892,834
16045,881,835
16050,871,830
16055,867,823
16059,860,828
16065,848,827
16070,849,813
16075,835,813
16079,827,816
16085,813,805
16090,799,803
16094,803,797
16100,788,796
16105,782,789
16110,774,784
16114,775,780
16120,776,775
16125,767,774
16129,757,766
16135,756,759
16140,753,754
16145,743,755
16149,751,744
16155,734,743
16160,746,742
16165,745,729
16170,752,732
16175,753,719
16180,743,716
16184,752,715
16190,749,704
16195,767,705
16200,763,700
16204,769,688
16210,775,686
16215,775,680
16219,795,674
16225,807,670
16230,795,672
16235,808,666
16239,826,656
16245,825,661
16250,835,657
16254,838,654
16260,862,652
16265,865,655
16270,886,647
16274,893,649
16280,899,649
16285,909,648
16290,919,648
16295,937,649
16300,948,643
16305,952,649
16309,971,651
16315,986,649
16320,993,656
16325,1008,660
16329,1007,663
16335,1041,664
16340,1042,673
16344,1049,672
16350,1075,675
16355,1077,677
16360,1093,684
16364,1086,691
16370,1096,696
16375,1115,704
16379,1127,711
16385,1132,716
16390,1133,720
16395,1133,728
16400,1141,736
16405,1144,744
16410,1154,747
16415,1165,757
16420,1167,763
16425,1168,772
16430,1177,776
16435,1180,788
16440,1178,794
16445,1181,798
16450,1189,807
16455,1186,811
16460,1190,821
16465,1182,827
16470,1191,833
16475,1189,841
16480,1182,845
16485,1188,850
16490,1182,861
16495,1183,865
16500,1179,865
16505,1175,868
16510,1188,879
16515,1170,879
16520,1167,887
16525,1172,897
16530,1162,893
16535,1155,894
16540,1154,899
16545,1157,902
16550,1155,909
16555,1149,912
16560,1146,910
16565,1145,913
16570,1145,913
16575,1136,917
16580,1132,915
16585,1130,914
16590,1127,915
16595,1137,919
16600,1119,915
16605,1120,913
16610,1113,916
16615,1107,912
16620,1119,908
16625,1102,911
16630,1111,913
16635,1100,911
16640,1106,904
16645,1092,904
16650,1100,903
16655,1098,896
16660,1107,901
16665,1090,895
16670,1096,904
16675,1088,889
16680,1084,886
16685,1081,890
16690,1072,886
16695,1077,883
16700,1089,882
16705,1070,877
16710,1066,878
16715,1065,878
16720,1062,871
16725,1064,875
16730,1061,868
16735,1052,869
16740,1053,865
16745,1049,870
16750,1038,868
16755,1037,864
16760,1034,864
16765,1033,863
16770,1021,864
16775,1012,857
16780,1007,854
16785,1007,854
16790,1004,853
16795,996,859
16800,987,855
16805,973,847
16810,971,848
16815,964,848
16820,959,846
16825,952,838
16830,934,853
16835,930,848
16840,921,840
16845,904,840
16850,908,837
16855,889,833
16860,886,833
16865,878,831
16870,872,828
16875,865,828
16880,848,830
16885,842,819
16890,837,818
16895,830,811
16900,814,807
16905,812,801
16910,796,801
16915,800,798
16920,789,796
16925,780,790
16930,775,787
16935,778,778
16940,770,776
16945,764,771
16950,759,763
16955,759,754
16960,755,758
16965,761,745
16970,757,745
16975,747,742
16980,743,734
16985,752,729
16990,750,723
16995,755,714
17000,749,716
17005,751,707
17010,760,706
17015,765,699
17020,768,696
17025,766,687
17030,772,682
17035,790,676
17040,801,669
17045,802,668
17050,802,666
17055,820,664
17060,820,660
17065,835,658
17070,837,654
17075,847,653
17080,876,647
17085,874,653
17090,883,647
17095,892,648
17100,902,650
17105,927,648
17110,929,645
17115,940,647
17120,954,647
17125,972,654
17130,980,651
17135,982,653
17140,1004,651
17145,1009,659
17150,1020,662
17155,1030,662
17160,1055,668
17165,1049,671
17170,1067,674
17175,1074,683
17180,1082,689
17185,1094,694
17190,1109,706
17195,1114,711
17200,1118,712
17205,1127,720
17210,1144,727
17215,1146,730
17220,1148,736
17225,1155,752
17230,1161,750
17235,1169,758
17240,1170,765
17245,1173,775
17250,1177,777
17255,1178,789
17260,1180,793
17265,1179,808
17270,1179,811
17275,1199,815
17280,1184,826
17285,1178,828
17290,1191,836
17295,1179,846
17300,1198,848
17305,1186,852
17310,1182,862
17315,1187,870
17320,1183,874
17325,1185,875
17330,1178,879
17335,1171,886
17340,1162,888
17345,1169,900
17350,1161,897
17355,1171,897
17360,1155,905
17365,1162,907
17370,1158,903
17375,1154,907
17380,1141,911
17385,1148,911
17390,1129,912
17395,1147,914
17400,1135,914
17405,1127,914
17410,1131,912
17415,1133,912
17420,1123,908
17425,1122,914
17430,1119,907
17435,1111,908
17440,1105,910
17445,1112,908
17450,1106,907
17455,1103,902
17460,1099,904
17465,1095,900
17470,1093,903
17475,1099,894
17480,1094,900
17485,1088,899
17490,1084,889
17495,1098,889
17500,1081,886
17505,1083,886
17510,1079,891
17515,1073,879
17520,1068,881
17525,1061,882
17530,1066,884
17535,1067,877
17540,1065,873
17545,1055,876
17550,1064,870
17555,1054,866
17560,1051,870
17565,1035,869
17570,1039,872
17575,1042,866
17580,1023,863
17585,1022,862
17590,1020,867
17595,1016,858
17600,1006,857
17605,1002,858
17610,991,854
17615,985,858
17620,978,854
17625,964,852
17630,966,849
17635,953,846
17640,949,848
17645,941,842
17650,936,843
17655,919,840
17660,915,834
17665,908,833
17670,897,839
17675,890,832
17680,883,826
17685,863,831
17690,859,828
17695,863,822
17700,837,819
17705,834,816
17710,824,815
17715,817,812
17720,807,805
17725,817,806
17730,799,802
17735,795,793
17740,789,792
17745,770,787
17750,769,775
17755,773,777
17760,763,769
17765,762,769
17770,754,762
17775,763,755
17780,747,753
17785,752,746
17790,751,738
17795,750,738
17800,740,730
17805,742,720
17810,745,718
17815,754,713
17820,767,706
17825,758,704
17830,762,697
17835,763,701
17840,760,691
17845,773,689
17850,790,677
17855,788,676
17860,794,673
17865,804,668
17870,812,672
17875,817,661
17880,826,655
17885,840,659
17890,848,654
17895,858,651
17900,876,650
17905,881,646
17910,895,648
17915,907,646
17920,915,641
17925,928,646
17930,937,642
17935,946,646
17940,967,646
17945,985,653
17950,985,649
17955,998,659
17960,1008,657
17965,1026,661
17970,1026,665
17975,1047,669
17980,1048,672
17985,1064,677
17990,1076,679
17995,1086,688
18000,1098,689
18005,1111,698
18010,1116,702
18015,1124,709
18020,1134,717
18025,1135,724
18030,1141,734
18035,1142,734
18040,1161,747
18045,1153,747
18050,1161,757
18055,1178,762
18060,1169,769
18065,1172,780
18070,1181,787
18075,1185,794
18080,1188,799
18085,1183,805
18090,1185,819
18095,1194,818
18100,1191,826
18105,1196,831
18110,1193,844
18115,1184,842
18120,1187,849
18125,1191,860
18130,1185,861
18135,1187,875
18140,1176,874
18145,1176,876
18150,1168,885
18155,1174,887
18160,1167,893
18165,1170,888
18170,1172,898
18175,1153,902
18180,1154,904
18185,1159,909
18190,1158,904
18195,1145,904
18200,1138,908
18205,1141,913
18210,1140,918
18215,1133,914
18220,1129,911
18225,1125,911
18230,1127,907
18235,1123,917
18240,1119,913
18245,1117,913
18250,1115,913
18255,1111,911
18260,1109,905
18265,1099,911
18270,1099,909
18275,1102,902
18280,1098,900
18285,1102,902
18290,1100,900
18295,1097,896
18300,1088,899
18305,1090,893
18310,1088,893
18315,1084,894
18320,1078,886
18325,1077,882
18330,1075,886
18335,1071,887
18340,1069,882
18345,1072,881
18350,1063,877
18355,1062,875
18360,1062,880
18365,1064,872
18370,1061,875
18375,1054,870
18380,1041,869
18385,1036,868
18390,1031,872
18395,1038,861
18400,1035,861
18405,1016,863
18410,1013,863
18415,1006,856
18420,1014,858
18425,991,854
18430,992,855
18435,980,854
18440,973,854
18445,969,855
18450,961,852
18455,957,849
18460,954,844
18465,928,847
18470,926,841
18475,926,839
18480,909,838
18485,896,834
18490,893,830
18495,884,837
18500,884,831
18505,872,824
18510,858,828
18515,860,825
18520,839,823
18525,834,816
18530,826,813
18535,823,805
18540,809,806
18545,808,798
18550,794,792
18555,789,795
18560,779,792
18565,775,779
18570,776,777
18575,769,773
18580,769,771
18585,765,762
18590,754,761
18595,750,754
18600,745,746
18605,747,743
18610,745,733
18615,751,729
18620,751,728
18625,745,721
18630,745,719
18635,747,706
18640,761,707
18645,759,705
18650,766,695
18655,762,686
18660,776,685
18665,782,679
18670,786,674
18675,788,673
18680,808,668
18685,815,665
18690,814,664
18695,823,661
18700,826,660
18705,845,658
18710,859,655
18715,864,655
18720,881,651
18725,883,649
18730,898,643
18735,904,649
18740,916,653
18745,931,643
18750,953,644
18755,955,648
18760,967,644
18765,982,652
18770,988,656
18775,1002,651
18780,1019,665
18785,1027,660
18790,1042,664
18795,1048,671
18800,1054,677
18805,1080,676
18810,1082,687
18815,1091,689
18820,1092,693
18825,1100,700
18830,1114,707
18835,1124,715
18840,1133,715
18845,1136,724
18850,1148,734
18855,1150,743
18860,1155,745
18865,1161,750
18870,1166,762
18875,1178,768
18880,1184,774
18885,1188,784
18890,1185,787
18895,1189,796
18900,1178,806
18905,1184,808
18910,1184,818
18915,1183,821
18920,1183,831
18925,1195,842
18930,1188,846
18935,1196,850
18940,1185,854
18945,1187,865
18950,1177,863
18955,1178,870
18960,1180,874
18965,1176,886
18970,1177,886
18975,1176,889
18980,1160,897
18985,1159,896
18990,1164,901
18995,1161,897
19000,1150,908
19005,1152,909
19010,1155,906
19015,1148,916
19020,1134,909
19025,1142,908
19030,1142,918
19035,1127,913
19040,1131,916
19045,1117,910
19050,1128,916
19055,1122,914
19060,1118,910
19065,1122,915
19070,1116,911
19075,1107,909
19080,1099,910
19085,1099,912
19090,1106,902
19095,1101,904
19100,1096,897
19105,1104,907
19110,1096,894
19115,1089,902
19120,1089,898
19125,1084,899
19130,1081,891
19135,1083,889
19140,1084,888
19145,1085,885
19150,1072,885
19155,1083,880
19160,1072,880
19165,1069,874
19170,1054,875
19175,1055,873
19180,1057,870
19185,1050,871
19190,1051,870
19195,1046,867
19200,1041,867
19205,1036,868
19210,1028,861
19215,1040,862
19220,1022,861
19225,1013,859
19230,1015,860
19235,1013,854
19240,1004,861
19245,993,855
19250,988,858
19255,976,853
19260,968,850
19265,957,853
19270,959,844
19275,954,844
19280,945,846
19285,927,841
19290,915,840
19295,918,846
19300,909,843
19305,894,836
19310,887,834
19315,886,829
19320,861,831
19325,870,824
19330,851,823
19335,854,820
19340,838,821
19345,824,815
19350,828,810
19355,814,814
19360,808,802
19365,802,803
19370,785,790
19375,786,789
19380,780,789
19385,768,775
19390,773,779
19395,760,775
19400,759,767
19405,750,762
19410,756,754
19415,750,752
19420,748,745
19425,752,738
19430,749,737
19435,751,727
19440,752,723
19445,758,721
19450,760,714
19455,744,710
19460,763,707
19465,763,696
19470,769,692
19475,779,687
19480,773,683
19485,783,680
19490,788,679
19495,806,672
19500,799,670
19505,817,669
19510,814,661
19515,829,663
19520,843,658
19525,854,647
19530,858,653
19535,873,651
19540,882,648
19545,890,647
19550,911,649
19555,921,648
19560,928,654
19565,949,646
19570,958,647
19575,961,647
19580,993,656
19585,990,654
19590,996,657
19595,1011,662
19600,1030,660
19605,1031,671
19610,1047,671
19615,1059,671
19620,1069,676
19625,1084,679
19630,1082,687
19635,1096,693
19640,1103,695
19645,1111,706
19650,1121,710
19655,1116,717
19660,1137,726
19665,1143,728
19670,1145,738
19675,1152,745
19680,1160,753
19685,1165,757
19690,1177,770
19695,1169,773
19700,1169,776
19705,1172,789
19710,1183,797
19715,1189,803
19720,1190,813
19725,1196,814
19730,1181,827
19735,1186,828
19740,1185,831
19745,1185,844
19750,1193,847
19755,1195,849
19760,1181,857
19765,1174,863
19770,1173,876
19775,1187,874
19780,1173,880
19785,1171,883
19790,1181,886
19795,1176,894
19800,1163,896
19805,1161,902
19810,1163,905
19815,1153,897
19820,1147,909
19825,1149,913
19830,1143,912
19835,1147,912
19840,1140,912
19845,1133,917
19850,1129,910
19855,1132,910
19860,1124,916
19865,1123,911
19870,1120,916
19875,1120,910
19880,1110,914
19885,1117,916
19890,1103,907
19895,1108,909
19900,1114,904
19905,1108,907
19910,1103,900
19915,1100,903
19920,1106,903
19925,1093,901
19930,1087,897
19935,1084,895
19940,1095,896
19945,1086,897
19950,1091,891
19955,1083,888
19960,1082,885
19965,1081,892
19970,1075,883
19975,1079,880
19980,1072,877
19985,1062,876
19990,1072,876
19995,1061,878
20000,1061,875
20005,1046,870
20010,1054,869
20015,1037,872
20020,1049,868
20025,1038,859
20030,1031,862
20035,1026,863
20040,1018,865
20045,1020,858
20050,1009,859
20055,1006,856
20060,995,855
20065,987,850
20070,979,848
20075,973,850
20080,964,848
20085,958,849
20090,954,841
20095,938,845
20100,929,842
20105,929,841
20110,922,841
20115,910,839
20120,899,836
20125,881,831
20130,880,836
20135,869,829
20140,857,823
20145,854,824
20150,847,821
20155,837,819
20160,833,815
20165,825,806
20170,818,809
20175,803,806
20180,799,797
20185,801,799
20190,791,794
20195,780,791
20200,772,782
20205,767,779
20210,766,776
20215,763,771
20220,757,756
20225,758,762
20230,760,748
20235,748,751
20240,747,743
20245,749,737
20250,746,740
20255,746,727
20260,750,722
20265,743,720
20270,761,713
20275,744,706
20280,759,701
20285,765,700
20290,772,689
20295,774,686
20300,769,676
20305,784,679
20310,788,675
20315,801,673
20320,810,660
20325,817,665
20330,831,659
20335,841,656
20340,840,655
20345,860,651
20350,873,648
20355,883,646
20360,891,643
20365,909,644
20370,911,646
20375,921,645
20380,930,646
20385,949,643
20390,954,646
20395,957,654
20400,978,657
20405,996,659
20410,1007,659
20415,1015,657
20420,1025,663
20425,1046,663
20430,1059,672
20435,1062,674
20440,1068,681
20445,1074,682
20450,1085,690
20455,1104,693
20460,1111,701
20465,1118,708
20470,1126,711
20475,1136,719
20480,1140,729
20485,1144,732
20490,1149,742
20495,1164,753
20500,1165,755
20505,1170,761
20510,1162,769
20515,1177,781
20520,1179,783
20525,1178,787
20530,1191,802
20535,1180,807
20540,1190,815
20545,1191,826
20550,1191,822
20555,1192,833
20560,1181,837
20565,1194,844
20570,1187,849
20575,1184,853
20580,1181,863
20585,1177,871
20590,1176,872
20595,1182,873
20600,1177,882
20605,1176,886
20610,1171,887
20615,1158,895
20620,1170,891
20625,1156,901
20630,1159,907
20635,1149,901
20640,1148,903
20645,1149,902
20650,1143,910
20655,1147,911
20660,1132,912
20665,1140,917
20670,1137,912
20675,1126,917
20680,1129,917
20685,1123,916
20690,1119,914
20695,1118,915
20700,1117,915
20705,1109,910
20710,1115,909
20715,1108,906
20720,1105,909
20725,1094,904
20730,1101,909
20735,1093,903
20740,1101,902
20745,1096,896
20750,1092,897
20755,1084,896
20760,1088,890
20765,1086,891
20770,1081,888
20775,1080,888
20780,1076,884
20785,1069,883
20790,1073,885
20795,1065,880
20800,1080,875
20805,1067,873
20810,1059,871
20815,1055,872
20820,1048,869
20825,1047,872
20830,1039,867
20835,1042,865
20840,1039,868
20845,1035,857
20850,1038,862
20855,1016,863
20860,1017,861
20865,1008,857
20870,1017,855
20875,989,856
20880,991,853
20885,982,851
20890,971,855
20895,970,851
20900,964,847
20905,955,845
20910,946,849
20915,941,844
20920,930,843
20925,921,842
20930,924,844
20935,905,835
20940,892,835
20945,891,832
20950,874,831
20955,867,832
20960,861,823
20965,860,825
20970,837,818
20975,830,819
20980,824,815
20985,814,810
20990,808,810
20995,802,806
21000,792,798
21005,800,797
21010,792,787
21015,777,783
21020,765,783
21025,768,772
21030,767,765
21035,762,766
21040,765,758
21045,758,754
21050,749,754
21055,755,744
21060,751,742
21065,747,735
21070,743,731
21075,746,720
21080,749,719
21085,762,713
21090,754,707
21095,749,706
21100,760,697
21105,770,689
21110,768,692
21115,778,682
21120,780,678
21125,789,674
21130,796,674
21135,808,670
21140,814,658
21145,820,658
21150,831,659
21155,844,658
21160,853,645
21165,867,650
21170,870,648
21175,882,653
21180,894,647
21185,910,651
21190,915,648
21195,928,644
21200,946,645
21205,953,647
21210,968,649
21215,972,649
21220,991,654
21225,1001,659
21230,1015,661
21235,1027,656
21240,1046,671
21245,1047,674
21250,1057,672
21255,1070,678
21260,1081,681
21265,1087,688
21270,1095,694
21275,1096,697
21280,1118,709
21285,1128,710
21290,1131,720
21295,1138,725
21300,1137,731
21305,1145,735
21310,1152,741
21315,1164,754
21320,1173,762
21325,1164,765
21330,1176,776
21335,1178,780
21340,1176,788
21345,1179,792
21350,1190,805
21355,1168,809
21360,1184,817
21365,1186,826
21370,1178,833
21375,1190,837
21380,1187,845
21385,1189,853
21390,1187,857
21395,1181,856
21400,1179,862
21405,1179,873
21410,1169,871
21415,1173,877
21420,1175,885
21425,1170,888
21430,1163,895
21435,1161,900
21440,1160,899
21445,1160,901
21450,1170,903
21455,1151,905
21460,1145,914
21465,1148,907
21470,1134,909
21475,1139,911
21480,1131,918
21485,1133,916
21490,1121,912
21495,1142,916
21500,1124,918
21505,1116,912
21510,1108,912
21515,1113,912
21520,1109,910
21525,1108,917
21530,1110,911
21535,1111,912
21540,1106,911
21545,1099,906
21550,1093,900
21555,1096,901
21560,1094,900
21565,1089,895
21570,1086,890
21575,1092,891
21580,1075,893
21585,1084,891
21590,1083,886
21595,1074,886
21600,1080,884
21605,1072,881
21610,1068,878
21615,1062,877
21620,1068,879
21625,1068,880
21630,1068,871
21635,1049,873
21640,1046,868
21645,1045,868
21650,1052,869
21655,1038,862
21660,1037,863
21665,1033,859
21670,1026,867
21675,1023,860
21680,1005,857
21685,998,856
21690,1003,856
21695,1001,858
21700,990,852
21705,977,852
21710,973,849
21715,961,850
21720,961,846
21725,949,846
21730,940,845
21735,938,843
21740,914,843
21745,918,836
21750,901,834
21755,897,837
21760,884,830
21765,882,831
21770,870,832
21775,858,827
21780,848,824
21785,846,823
21790,838,827
21795,837,810
21800,819,805
21805,812,805
21810,808,801
21815,797,800
21820,800,794
21825,796,797
21830,783,785
21835,777,782
21840,771,779
21845,773,773
21850,766,765
21855,749,758
21860,758,765
21865,750,754
21870,753,745
21875,748,741
21880,744,736
21885,743,729
21890,752,723
21895,739,715
21900,751,715
21905,751,706
21910,752,706
21915,759,697
21920,762,697
21925,771,691
21930,771,683
21935,772,679
21940,778,678
21945,798,671
21950,815,665
21955,806,664
21960,827,662
21965,825,666
21970,840,660
21975,852,654
21980,862,650
21985,876,654
21990,880,653
21995,888,646
22000,903,644
22005,904,651
22010,922,642
22015,933,649
22020,951,650
22025,964,651
22030,977,648
22035,984,653
22040,996,653
22045,1008,659
22050,1023,661
22055,1023,667
22060,1039,667
22065,1054,672
22070,1068,673
22075,1073,680
22080,1080,683
22085,1097,688
22090,1098,693
22095,1105,700
22100,1126,708
22105,1134,717
22110,1135,718
22115,1144,731
22120,1147,737
22125,1153,739
22130,1159,747
22135,1162,758
22140,1168,763
22145,1166,768
22150,1171,773
22155,1173,789
22160,1176,791
22165,1181,795
22170,1183,804
22175,1189,812
22180,1182,824
22185,1186,830
22190,1187,836
22195,1181,836
22200,1185,845
22205,1181,852
22210,1181,856
22215,1180,863
22220,1185,864
22225,1181,877
22230,1178,875
22235,1173,885
22240,1167,893
22245,1178,887
22250,1175,893
22255,1170,898
22260,1157,902
22265,1153,899
22270,1154,905
22275,1154,911
22280,1147,908
22285,1142,911
22290,1141,911
22295,1146,916
22300,1126,909
22305,1128,919
22310,1118,917
22315,1119,914
22320,1124,912
22325,1123,909
22330,1113,913
22335,1112,916
22340,1104,910
22345,1107,909
22350,1107,907
22355,1104,905
22360,1110,906
22365,1102,899
22370,1094,901
22375,1100,898
22380,1099,902
22385,1094,899
22390,1090,891
22395,1089,891
22400,1085,891
22405,1082,885
22410,1075,886
22415,1083,884
22420,1077,882
22425,1079,882
22430,1063,877
22435,1071,874
22440,1060,872
22445,1059,871
22450,1053,870
22455,1063,868
22460,1051,869
22465,1045,871
22470,1044,868
22475,1029,858
22480,1034,866
22485,1019,859
22490,1021,858
22495,1017,861
22500,1010,857
22505,1008,856
22510,996,853
22515,993,859
22520,993,857
22525,977,848
22530,973,848
22535,950,848
22540,957,839
22545,939,844
22550,942,844
22555,937,842
22560,917,839
22565,904,834
22570,900,838
22575,894,831
22580,878,832
22585,873,833
22590,866,823
22595,860,823
22600,851,823
22605,843,820
22610,845,816
22615,827,818
22620,815,813
22625,815,805
22630,805,805
22635,792,797
22640,785,794
22645,783,787
22650,776,786
22655,772,778
22660,761,776
22665,769,767
22670,757,764
22675,758,763
22680,754,752
22685,751,746
22690,743,746
22695,740,739
22700,755,730
22705,752,728
22710,757,723
22715,733,715
22720,755,705
22725,758,706
22730,757,701
22735,768,702
22740,770,697
22745,783,692
22750,771,687
22755,777,676
22760,806,671
22765,799,668
22770,797,663
22775,815,666
22780,818,660
22785,829,658
22790,846,655
22795,852,657
22800,866,652
22805,874,647
22810,894,650
22815,903,647
22820,910,650
22825,915,650
22830,938,650
22835,943,651
22840,953,641
22845,963,647
22850,979,653
22855,996,649
22860,1000,659
22865,1011,657
22870,1017,666
22875,1035,663
22880,1047,668
22885,1054,670
22890,1064,679
22895,1080,678
22900,1089,689
22905,1100,695
22910,1104,704
22915,1118,708
22920,1122,711
22925,1130,721
22930,1138,723
22935,1145,732
22940,1149,740
22945,1160,746
22950,1160,759
22955,1166,758
22960,1171,768
22965,1173,779
22970,1182,785
22975,1186,785
22980,1186,797
22985,1186,809
22990,1183,813
22995,1193,818
23000,1191,824
23005,1195,833
23010,1185,839
23015,1186,846
23020,1184,848
23025,1180,855
23030,1190,861
23035,1179,871
23040,1178,868
23045,1174,877
23050,1180,885
23055,1176,887
23060,1171,894
23065,1171,898
23070,1167,902
23075,1168,898
23080,1156,901
23085,1158,903
23090,1153,905
23095,1148,914
23100,1157,915
23105,1137,911
23110,1134,910
23115,1138,914
23120,1119,915
23125,1129,912
23130,1128,915
23135,1119,915
23140,1117,912
23145,1107,912
23150,1106,914
23155,1115,908
23160,1113,916
23165,1107,911
23170,1104,907
23175,1110,909
23180,1100,906
23185,1105,899
23190,1098,905
23195,1088,903
23200,1095,899
23205,1084,890
23210,1087,894
23215,1080,894
23220,1082,886
23225,1090,889
23230,1076,883
23235,1079,879
23240,1070,877
23245,1073,874
23250,1072,873
23255,1062,874
23260,1062,876
23265,1058,871
23270,1055,875
23275,1048,875
23280,1045,868
23285,1042,867
23290,1034,862
23295,1036,861
23300,1027,855
23305,1030,860
23310,1017,859
23315,1010,858
23320,1012,856
23325,997,858
23330,988,858
23335,989,859
23340,980,857
23345,969,849
23350,966,843
23355,946,848
23360,947,844
23365,937,840
23370,923,844
23375,923,841
23380,906,847
23385,906,835
23390,896,835
23395,888,835
23400,883,835
23405,874,830
23410,866,822
23415,851,823
23420,836,820
23425,834,817
23430,833,816
23435,820,810
23440,815,806
23445,808,800
23450,804,800
23455,796,794
23460,785,790
23465,775,784
23470,770,780
23475,766,779
23480,766,774
23485,764,764
23490,755,764
23495,751,759
23500,755,752
23505,756,746
23510,749,737
23515,746,739
23520,753,729
23525,747,731
23530,752,719
23535,744,714
23540,755,709
23545,757,702
23550,760,699
23555,765,692
23560,772,692
23565,780,683
23570,785,677
23575,795,682
23580,801,671
23585,806,665
23590,813,666
23595,816,666
23600,823,659
23605,839,654
23610,851,653
23615,855,647
23620,872,648
23625,887,646
23630,891,649
23635,905,640
23640,914,642
23645,919,642
23650,941,650
23655,958,644
23660,950,645
23665,975,655
23670,987,652
23675,998,660
23680,1019,656
23685,1018,661
23690,1021,669
23695,1052,667
23700,1057,668
23705,1066,674
23710,1073,683
23715,1093,685
23720,1090,698
23725,1108,698
23730,1116,704
23735,1124,704
23740,1137,716
23745,1129,719
23750,1148,731
23755,1143,734
23760,1153,745
23765,1162,759
23770,1171,763
23775,1181,768
23780,1168,775
23785,1185,779
23790,1179,785
23795,1177,793
23800,1189,803
23805,1179,811
23810,1184,818
23815,1183,820
23820,1195,831
23825,1186,830
23830,1188,845
23835,1188,852
23840,1189,852
23845,1192,856
23850,1182,859
23855,1189,868
23860,1182,874
23865,1181,883
23870,1172,881
23875,1166,888
23880,1167,888
23885,1157,894
23890,1164,898
23895,1156,897
23900,1159,907
23905,1159,902
23910,1146,908
23915,1149,908
23920,1143,911
23925,1145,909
23930,1134,910
23935,1123,918
23940,1126,914
23945,1124,916
23950,1125,909
23955,1123,917
23960,1114,911
23965,1120,915
23970,1109,911
23975,1111,910
23980,1111,907
23985,1110,904
23990,1110,906
23995,1102,906
24000,1092,903
24005,1095,903
24010,1091,899
24015,1092,896
24020,1091,899
24025,1087,894
24030,1090,893
24035,1090,890
24040,1083,898
24045,1078,880
24050,1082,886
24055,1074,879
24060,1075,876
24065,1072,875
24070,1063,874
24075,1066,877
24080,1062,875
24085,1062,875
24090,1050,869
24095,1045,873
24100,1051,864
24105,1046,865
24110,1036,868
24115,1038,868
24120,1024,865
24125,1031,863
24130,1011,851
24135,1007,860
24140,1010,862
24145,999,850
24150,985,859
24155,971,853
24160,974,855
24165,972,850
24170,959,849
24175,959,841
24180,944,845
24185,932,837
24190,926,843
24195,922,842
24200,903,838
24205,909,832
24210,891,831
24215,878,833
24220,875,836
24225,866,830
24230,856,821
24235,852,820
24240,838,818
24245,824,812
24250,819,813
24255,810,807
24260,813,803
24265,793,800
24270,787,794
24275,791,790
24280,798,786
24285,770,781
24290,771,776
24295,767,776
24300,770,766
24305,756,768
24310,761,760
24315,747,750
24320,747,753
24325,751,743
24330,748,740
24335,743,732
24340,753,726
24345,756,722
24350,749,714
24355,758,712
24360,749,703
24365,754,706
24370,763,696
24375,767,692
24380,771,683
24385,782,677
24390,786,678
24395,796,670
24400,803,666
24405,810,660
24410,816,662
24415,828,655
24420,826,653
24425,842,660
24430,851,647
24435,855,649
24440,878,657
24445,893,645
24450,904,650
24455,912,646
24460,920,639
24465,934,641
24470,954,646
24475,957,649
24480,972,653
24485,984,649
24490,995,652
24495,1010,658
24500,1013,657
24505,1027,663
24510,1042,665
24515,1051,665
24520,1055,678
24525,1071,680
24530,1073,688
24535,1095,692
24540,1096,701
24545,1105,703
24550,1120,705
24555,1125,720
24560,1129,717
24565,1142,728
24570,1151,735
24575,1151,745
24580,1151,743
24585,1166,758
24590,1167,761
24595,1177,774
24600,1175,778
24605,1181,779
24610,1169,790
24615,1178,797
24620,1189,808
24625,1183,811
24630,1180,821
24635,1188,821
24640,1189,837
24645,1189,838
24650,1181,841
24655,1183,851
24660,1195,858
24665,1174,862
24670,1181,863
24675,1182,875
24680,1175,875
24685,1180,880
24690,1174,885
24695,1170,889
24700,1160,887
24705,1159,897
24710,1168,898
24715,1146,904
24720,1157,902
24725,1154,910
24730,1154,908
24735,1145,907
24740,1144,914
24745,1142,910
24750,1130,916
24755,1133,914
24760,1127,915
24765,1130,915
24770,1121,910
24775,1121,908
24780,1110,910
24785,1114,910
24790,1112,908
24795,1108,909
24800,1109,909
24805,1105,910
24810,1109,906
24815,1096,906
24820,1102,902
24825,1091,904
24830,1092,900
24835,1091,897
24840,1093,896
24845,1090,890
24850,1079,895
24855,1084,891
24860,1078,886
24865,1088,884
24870,1082,886
24875,1065,874
24880,1070,880
24885,1072,874
24890,1061,877
24895,1063,873
24900,1057,873
24905,1043,869
24910,1049,869
24915,1048,866
24920,1045,865
24925,1040,866
24930,1040,862
24935,1021,862
24940,1032,858
24945,1019,859
24950,1015,856
24955,999,854
24960,998,854
24965,996,860
24970,978,853
24975,975,856
24980,965,852
24985,963,848
24990,965,849
24995,944,845
25000,940,845
25005,937,843
25010,918,840
25015,905,836
25020,906,841
25025,893,833
25030,886,835
25035,888,833
25040,867,827
25045,865,825
25050,856,820
25055,840,823
25060,836,818
25065,826,814
25070,810,814
25075,815,803
25080,806,800
25085,798,799
25090,779,788
25095,789,790
25100,787,788
25105,780,780
25110,771,778
25115,767,773
25120,768,767
25125,754,761
25130,751,757
25135,748,753
25140,738,738
25145,743,742
25150,751,728
25155,744,724
25160,744,727
25165,755,718
25170,751,715
25175,748,702
25180,758,701
25185,750,694
25190,765,695
25195,777,685
25200,778,689
25205,779,681
25210,792,677
25215,795,669
25220,800,670
25225,806,664
25230,821,659
25235,824,657
25240,846,651
25245,846,650
25250,866,647
25255,869,646
25260,888,646
25265,896,642
25270,904,647
25275,917,645
25280,926,642
25285,946,647
25290,949,654
25295,959,649
25300,980,652
25305,987,658
25310,995,653
25315,1003,654
25320,1023,661
25325,1038,670
25330,1061,672
25335,1050,673
25340,1072,681
25345,1073,687
25350,1088,688
25355,1095,687
25360,1098,697
25365,1110,707
25370,1127,707
25375,1126,719
25380,1129,728
25385,1138,735
25390,1155,742
25395,1147,743
25400,1165,753
25405,1157,766
25410,1176,770
25415,1174,778
25420,1178,782
25425,1175,788
25430,1182,795
25435,1189,799
25440,1187,810
25445,1183,817
25450,1191,822
25455,1187,828
25460,1183,838
25465,1187,840
25470,1186,854
25475,1188,848
25480,1183,858
25485,1174,866
25490,1174,867
25495,1176,878
25500,1180,880
25505,1169,884
25510,1176,889
25515,1170,894
25520,1168,892
25525,1161,895
25530,1157,901
25535,1150,904
25540,1151,908
25545,1147,914
25550,1149,912
25555,1145,911
25560,1135,907
25565,1137,915
25570,1126,916
25575,1130,913
25580,1119,916
25585,1125,911
25590,1118,919
25595,1113,913
25600,1111,907
25605,1108,912
25610,1110,915
25615,1102,910
25620,1113,906
25625,1105,909
25630,1107,905
25635,1090,902
25640,1096,901
25645,1102,896
25650,1094,896
25655,1096,896
25660,1085,897
25665,1095,888
25670,1080,885
25675,1085,881
25680,1082,884
25685,1074,885
25690,1068,885
25695,1073,883
25700,1063,869
25705,1068,879
25710,1058,873
25715,1059,870
25720,1058,878
25725,1055,873
25730,1044,869
25735,1052,868
25740,1039,866
25745,1039,866
25750,1027,859
25755,1028,863
25760,1018,860
25765,1013,860
25770,1011,863
25775,1008,858
25780,994,854
25785,989,854
25790,988,848
25795,981,851
25800,972,845
25805,962,842
25810,947,846
25815,941,851
25820,929,844
25825,924,844
25830,916,838
25835,899,834
25840,896,833
25845,898,839
25850,876,832
25855,877,824
25860,866,829
25865,858,825
25870,845,816
25875,839,817
25880,832,815
25885,828,803
25890,810,809
25895,804,800
25900,799,797
25905,793,799
25910,793,792
25915,787,786
25920,775,773
25925,776,775
25930,763,769
25935,764,765
25940,762,763
25945,747,761
25950,756,752
25955,754,750
25960,744,736
25965,745,737
25970,744,729
25975,750,729
25980,743,725
25985,752,716
25990,753,712
25995,752,697
26000,756,704
26005,765,689
26010,764,687
26015,773,686
26020,780,676
26025,778,677
26030,800,669
26035,803,671
26040,826,663
26045,816,661
26050,831,658
26055,840,662
26060,851,656
26065,852,649
26070,874,649
26075,888,652
26080,884,648
26085,899,642
26090,915,647
26095,922,645
26100,934,642
26105,947,649
26110,957,645
26115,978,655
26120,986,651
26125,997,660
26130,1014,660
26135,1007,656
26140,1031,667
26145,1046,670
26150,1052,669
26155,1061,672
26160,1068,681
26165,1081,687
26170,1091,687
26175,1096,701
26180,1116,697
26185,1115,711
26190,1132,714
26195,1132,719
26200,1151,730
26205,1146,731
26210,1153,742
26215,1156,747
26220,1162,757
26225,1166,758
26230,1170,772
26235,1185,776
26240,1177,787
26245,1185,796
26250,1180,801
26255,1188,800
26260,1179,821
26265,1191,818
26270,1188,829
26275,1170,835
26280,1186,841
26285,1189,845
26290,1187,851
26295,1183,857
26300,1178,862
26305,1184,868
26310,1175,871
26315,1176,877
26320,1179,882
26325,1175,887
26330,1160,888
26335,1169,893
26340,1165,895
26345,1149,896
26350,1165,901
26355,1150,906
26360,1156,905
26365,1144,911
26370,1143,916
26375,1144,913
26380,1138,915
26385,1129,911
26390,1146,919
26395,1124,909
26400,1128,915
26405,1122,919
26410,1122,914
26415,1119,911
26420,1123,913
26425,1117,913
26430,1110,912
26435,1110,912
26440,1115,908
26445,1091,908
26450,1101,908
26455,1098,898
26460,1100,899
26465,1094,902
26470,1093,897
26475,1092,894
26480,1094,893
26485,1077,893
26490,1085,889
26495,1082,884
26500,1081,880
26505,1077,878
26510,1071,881
26515,1069,879
26520,1072,875
26525,1059,874
26530,1063,870
26535,1063,877
26540,1057,869
26545,1059,866
26550,1054,864
26555,1038,872
26560,1043,861
26565,1031,865
26570,1028,862
26575,1022,860
26580,1014,859
26585,1009,855
26590,994,859
26595,1001,859
26600,989,849
26605,992,854
26610,977,851
26615,967,849
26620,969,849
26625,941,851
26630,942,849
26635,930,845
26640,924,844
26645,915,846
26650,914,837
26655,896,836
26660,893,834
26665,881,835
26670,875,833
26675,868,833
26680,858,822
26685,851,817
26690,844,822
26695,833,814
26700,828,816
26705,819,806
26710,809,798
26715,804,804
26720,799,803
26725,792,789
26730,778,792
26735,776,786
26740,773,780
26745,761,773
26750,758,768
26755,751,760
26760,752,759
26765,743,753
26770,757,748
26775,758,745
26780,756,742
26785,757,737
26790,749,730
26795,753,719
26800,743,713
26805,757,718
26810,744,705
26815,766,698
26820,768,693
26825,771,691
26830,762,686
26835,774,678
26840,788,683
26845,787,676
26850,802,676
26855,805,667
26860,822,664
26865,821,655
26870,833,660
26875,846,654
26880,856,651
26885,869,649
26890,876,649
26895,882,647
26900,894,649
26905,905,645
26910,919,649
26915,931,647
26920,943,647
26925,956,649
26930,964,652
26935,977,654
26940,993,650
26945,1005,654
26950,1008,655
26955,1015,663
26960,1037,665
26965,1046,667
26970,1063,675
26975,1064,684
26980,1077,682
26985,1092,689
26990,1097,695
26995,1107,695
27000,1121,709
27005,1124,714
27010,1121,719
27015,1134,726
27020,1139,731
27025,1145,741
27030,1154,749
27035,1156,757
27040,1153,761
27045,1165,762
27050,1174,774
27055,1175,779
27060,1181,788
27065,1181,791
27070,1181,794
27075,1189,810
27080,1185,818
27085,1184,825
27090,1196,828
27095,1182,833
27100,1195,844
27105,1191,850
27110,1179,857
27115,1176,866
27120,1185,870
27125,1191,871
27130,1173,881
27135,1176,884
27140,1173,887
27145,1169,889
27150,1170,891
27155,1164,899
27160,1161,894
27165,1159,895
27170,1159,905
27175,1145,908
27180,1149,910
27185,1139,910
27190,1144,914
27195,1146,915
27200,1132,910
27205,1130,918
27210,1127,912
27215,1122,915
27220,1124,917
27225,1118,915
27230,1120,915
27235,1112,914
27240,1122,909
27245,1114,911
27250,1099,907
27255,1098,910
27260,1104,909
27265,1098,905
27270,1099,902
27275,1094,903
27280,1101,898
27285,1097,893
27290,1097,891
27295,1083,890
27300,1083,886
27305,1088,893
27310,1083,888
27315,1084,882
27320,1074,889
27325,1064,886
27330,1063,885
27335,1071,881
27340,1065,873
27345,1063,878
27350,1059,874
27355,1060,868
27360,1048,870
27365,1049,871
27370,1049,867
27375,1041,869
27380,1034,862
27385,1031,864
27390,1026,862
27395,1013,860
27400,1010,859
27405,1000,858
27410,1004,851
27415,996,852
27420,981,857
27425,973,849
27430,967,853
27435,964,852
27440,951,853
27445,949,848
27450,939,843
27455,940,839
27460,922,839
27465,914,841
27470,902,836
27475,892,829
27480,889,828
27485,874,827
27490,869,828
27495,866,829
27500,852,825
27505,847,821
27510,842,813
27515,828,810
27520,816,810
27525,811,810
27530,807,801
27535,789,795
27540,801,793
27545,790,795
27550,775,782
27555,776,780
27560,768,777
27565,769,777
27570,763,765
27575,756,763
27580,750,757
27585,751,751
27590,750,746
27595,747,742
27600,750,735
27605,740,727
27610,746,728
27615,752,716
27620,753,715
27625,756,715
27630,754,702
27635,754,701
27640,764,694
27645,774,683
27650,771,681
27655,788,675
27660,791,672
27665,792,667
27670,808,667
27675,807,665
27680,823,655
27685,827,656
27690,844,658
27695,845,658
27700,850,652
27705,867,651
27710,892,651
27715,901,643
27720,910,649
27725,908,643
27730,931,647
27735,942,647
27740,957,648
27745,962,653
27750,968,650
27755,985,648
27760,995,649
27765,1008,656
27770,1028,659
27775,1023,665
27780,1043,668
27785,1050,668
27790,1069,679
27795,1074,679
27800,1083,685
27805,1099,695
27810,1096,693
27815,1122,701
27820,1111,707
27825,1130,717
27830,1128,723
27835,1140,726
27840,1152,742
27845,1158,739
27850,1154,746
27855,1164,763
27860,1167,762
27865,1165,771
27870,1171,778
27875,1178,787
27880,1181,797
27885,1183,805
27890,1179,811
27895,1196,818
27900,1183,818
27905,1187,821
27910,1180,833
27915,1184,841
27920,1185,853
27925,1185,856
27930,1184,857
27935,1172,869
27940,1182,863
27945,1186,883
27950,1171,882
27955,1176,881
27960,1171,891
27965,1171,892
27970,1164,899
27975,1170,900
27980,1164,897
27985,1150,903
27990,1157,903
27995,1147,906
28000,1137,909
28005,1139,917
28010,1144,914
28015,1138,916
28020,1143,919
28025,1128,909
28030,1127,912
28035,1121,918
28040,1120,914
28045,1108,914
28050,1116,913
28055,1116,912
28060,1113,905
28065,1107,910
28070,1100,909
28075,1101,903
28080,1101,904
28085,1101,903
28090,1102,902
28095,1102,905
28100,1098,899
28105,1093,897
28110,1084,893
28115,1081,894
28120,1087,889
28125,1078,891
28130,1090,885
28135,1084,882
28140,1073,883
28145,1072,882
28150,1062,883
28155,1057,879
28160,1062,873
28165,1050,874
28170,1057,868
28175,1051,874
28180,1050,872
28185,1048,868
28190,1043,869
28195,1041,859
28200,1032,862
28205,1021,863
28210,1027,856
28215,1017,859
28220,1005,861
28225,1003,858
28230,1005,849
28235,979,859
28240,985,851
28245,972,851
28250,974,850
28255,971,848
28260,951,838
28265,944,844
28270,936,839
28275,929,844
28280,924,835
28285,909,837
28290,905,838
28295,884,834
28300,890,830
28305,868,834
28310,869,835
28315,860,826
28320,849,817
28325,840,818
28330,828,814
28335,829,801
28340,825,808
28345,807,808
28350,805,797
28355,793,798
28360,788,789
28365,780,786
28370,772,782
28375,777,776
28380,762,775
28385,754,769
28390,755,763
28395,757,755
28400,754,750
28405,751,747
28410,748,739
28415,742,744
28420,749,735
28425,747,730
28430,754,722
28435,750,715
28440,748,710
28445,766,709
28450,762,698
28455,766,697
28460,768,693
28465,774,683
28470,779,684
28475,793,672
28480,790,677
28485,796,672
28490,809,668
28495,818,659
28500,827,662
28505,832,655
28510,845,658
28515,853,655
28520,865,652
28525,874,649
28530,887,648
28535,895,648
28540,913,646
28545,921,644
28550,935,647
28555,949,646
28560,950,646
28565,965,647
28570,978,654
28575,996,659
28580,1002,656
28585,1019,660
28590,1025,661
28595,1044,665
28600,1046,671
28605,1058,676
28610,1067,677
28615,1092,682
28620,1090,684
28625,1098,696
28630,1110,702
28635,1112,710
28640,1129,716
28645,1136,720
28650,1133,725
28655,1148,733
28660,1141,741
28665,1157,747
28670,1167,752
28675,1164,760
28680,1182,768
28685,1170,779
28690,1179,781
28695,1178,789
28700,1183,795
28705,1182,803
28710,1188,812
28715,1179,814
28720,1188,831
28725,1188,829
28730,1188,834
28735,1187,847
28740,1184,858
28745,1192,855
28750,1187,862
28755,1179,868
28760,1177,869
28765,1173,874
28770,1174,885
28775,1170,885
28780,1175,884
28785,1171,891
28790,1156,895
28795,1163,899
28800,1146,905
28805,1147,905
28810,1138,907
28815,1144,912
28820,1142,911
28825,1147,915
28830,1139,912
28835,1138,916
28840,1138,907
28845,1122,911
28850,1131,909
28855,1122,916
28860,1115,911
28865,1117,912
28870,1117,906
28875,1114,910
28880,1107,914
28885,1098,908
28890,1101,911
28895,1106,910
28900,1100,911
28905,1106,907
28910,1095,903
28915,1096,896
28920,1089,900
28925,1077,893
28930,1093,893
28935,1086,889
28940,1080,892
28945,1076,888
28950,1075,881
28955,1082,888
28960,1067,878
28965,1065,880
28970,1064,885
28975,1066,878
28980,1066,873
28985,1065,873
28990,1053,866
28995,1046,868
29000,1044,861
29005,1049,870
29010,1037,862
29015,1036,861
29020,1028,864
29025,1023,861
29030,1015,860
29035,1015,861
29040,1010,859
29045,1000,851
29050,1002,856
29055,980,852
29060,976,851
29065,978,851
29070,959,853
29075,949,846
29080,942,843
29085,937,844
29090,941,848
29095,935,839
29100,913,841
29105,900,839
29110,902,840
29115,886,835
29120,879,829
29125,863,826
29130,849,828
29135,853,825
29140,840,821
29145,832,819
29150,823,813
29155,816,806
29160,818,804
29165,804,802
29170,793,798
29175,785,790
29180,783,787
29185,781,783
29190,782,778
29195,765,775
29200,764,766
29205,761,764
29210,757,763
29215,749,756
29220,753,751
29225,746,746
29230,745,741
29235,755,733
29240,760,734
29245,750,727
29250,751,717
29255,753,709
29260,758,711
29265,764,707
29270,761,696
29275,763,693
29280,768,686
29285,775,682
29290,783,679
29295,785,675
29300,798,670
29305,807,668
29310,812,666
29315,819,657
29320,836,661
29325,835,652
29330,849,660
29335,860,650
29340,868,646
29345,881,649
29350,896,645
29355,905,647
29360,916,647
29365,935,645
29370,935,651
29375,950,650
29380,965,655
29385,979,655
29390,984,657
29395,1001,656
29400,1009,658
29405,1012,658
29410,1034,661
29415,1049,668
29420,1053,674
29425,1063,673
29430,1076,681
29435,1087,688
29440,1097,688
29445,1095,697
29450,1118,708
29455,1125,711
29460,1128,721
29465,1135,723
29470,1140,729
29475,1154,739
29480,1152,747
29485,1166,747
29490,1166,760
29495,1178,763
29500,1170,775
29505,1171,785
29510,1177,792
29515,1177,798
29520,1180,800
29525,1179,812
29530,1187,818
29535,1194,823
29540,1188,833
29545,1193,840
29550,1191,847
29555,1176,852
29560,1180,856
29565,1185,862
29570,1181,864
29575,1183,867
29580,1182,877
29585,1179,883
29590,1175,881
29595,1172,892
29600,1169,893
29605,1157,896
29610,1158,900
29615,1155,904
29620,1154,904
29625,1157,911
29630,1149,908
29635,1149,913
29640,1142,913
29645,1138,913
29650,1145,910
29655,1126,917
29660,1121,919
29665,1118,914
29670,1124,912
29675,1116,912
29680,1115,911
29685,1118,916
29690,1112,910
29695,1113,911
29700,1099,908
29705,1108,908
29710,1102,904
29715,1104,904
29720,1096,903
29725,1085,895
29730,1090,901
29735,1097,900
29740,1090,899
29745,1086,893
29750,1089,888
29755,1084,891
29760,1087,887
29765,1079,881
29770,1082,881
29775,1078,879
29780,1077,882
29785,1062,879
29790,1065,875
29795,1073,879
29800,1059,868
29805,1055,869
29810,1055,867
29815,1049,866
29820,1035,867
29825,1038,865
29830,1033,865
29835,1030,859
29840,1026,861
29845,1024,859
29850,1014,853
29855,1009,858
29860,1004,853
29865,993,856
29870,991,850
29875,976,852
29880,966,853
29885,972,851
29890,962,847
29895,947,845
29900,950,843
29905,928,843
29910,935,844
29915,915,844
29920,912,834
29925,892,840
29930,887,829
29935,882,828
29940,869,830
29945,868,828
29950,866,822
29955,844,822
29960,832,820
29965,833,814
29970,826,817
29975,820,808
29980,807,801
29985,806,794
29990,796,793
29995,786,792
30000,787,786
30005,771,781
30010,775,777
30015,762,771
30020,757,769
30025,762,761
30030,757,759
30035,751,751
30040,746,750
30045,741,742
30050,745,739
30055,750,734
30060,741,728
30065,749,722
30070,746,713
30075,755,706
30080,748,704
30085,756,701
30090,770,697
30095,764,690
30100,782,682
30105,778,680
30110,785,676
30115,798,673
30120,801,668
30125,813,669
30130,824,667
30135,831,656
30140,838,656
30145,843,653
30150,857,650
30155,873,647
30160,882,652
30165,893,646
30170,903,642
30175,919,645
30180,930,651
30185,936,645
30190,948,648
30195,959,647
30200,971,652
30205,983,648
30210,994,654
30215,1009,656
30220,1020,661
30225,1028,661
30230,1041,663
30235,1052,668
30240,1069,676
30245,1081,676
30250,1079,686
30255,1097,690
30260,1101,699
30265,1111,701
30270,1115,708
30275,1120,720
30280,1127,724
30285,1142,734
30290,1140,734
30295,1147,738
30300,1158,749
30305,1166,752
30310,1171,763
30315,1177,774
30320,1171,777
30325,1183,786
30330,1177,790
30335,1184,798
30340,1183,808
30345,1182,818
30350,1182,817
30355,1189,826
30360,1185,832
30365,1188,843
30370,1193,841
30375,1191,852
30380,1182,853
30385,1193,863
30390,1185,870
30395,1181,876
30400,1180,884
30405,1169,886
30410,1167,889
30415,1167,896
30420,1169,896
30425,1165,897
30430,1166,899
30435,1157,898
30440,1161,909
30445,1154,910
30450,1147,910
30455,1148,910
30460,1147,917
30465,1137,910
30470,1136,910
30475,1130,916
30480,1114,916
30485,1128,916
30490,1127,913
30495,1119,916
30500,1115,914
30505,1110,913
30510,1108,911
30515,1109,910
30520,1108,906
30525,1103,909
30530,1096,898
30535,1094,906
30540,1100,901
30545,1098,897
30550,1091,903
30555,1095,894
30560,1091,898
30565,1081,893
30570,1087,892
30575,1085,890
30580,1081,887
30585,1074,881
30590,1076,878
30595,1076,880
30600,1072,878
30605,1066,881
30610,1061,877
30615,1071,872
30620,1065,873
30625,1057,871
30630,1053,868
30635,1048,868
30640,1042,868
30645,1040,869
30650,1030,867
30655,1025,859
30660,1017,861
30665,1018,857
30670,1016,853
30675,999,861
30680,996,858
30685,995,853
30690,980,853
30695,974,853
30700,974,849
30705,959,853
30710,963,847
30715,939,847
30720,934,844
30725,931,838
30730,921,843
30735,917,839
30740,902,834
30745,887,831
30750,879,832
30755,884,832
30760,865,828
30765,858,825
30770,850,822
30775,844,821
30780,840,819
30785,823,816
30790,825,808
30795,822,800
30800,805,798
30805,798,800
30810,794,794
30815,785,787
30820,784,779
30825,776,779
30830,765,772
30835,765,772
30840,764,760
30845,754,758
30850,748,758
30855,753,748
30860,750,740
30865,749,740
30870,755,729
30875,751,727
30880,740,720
30885,748,718
30890,740,714
30895,753,706
30900,762,702
30905,764,696
30910,761,690
30915,763,689
30920,774,681
30925,774,676
30930,798,674
30935,799,671
30940,806,667
30945,813,667
30950,832,663
30955,829,658
30960,844,657
30965,848,655
30970,865,644
30975,862,650
30980,887,649
30985,897,646
30990,901,645
30995,911,645
31000,925,646
31005,945,650
31010,956,647
31015,957,643
31020,976,650
31025,990,660
31030,1005,656
31035,1017,658
31040,1026,664
31045,1040,668
31050,1046,671
31055,1058,671
31060,1073,673
31065,1072,682
31070,1090,688
31075,1086,691
31080,1110,705
31085,1101,704
31090,1119,715
31095,1123,715
31100,1140,725
31105,1150,738
31110,1151,742
31115,1155,744
31120,1164,754
31125,1162,758
31130,1163,765
31135,1169,778
31140,1185,778
31145,1179,789
31150,1175,788
31155,1190,806
31160,1178,804
31165,1193,819
31170,1176,817
31175,1188,830
31180,1184,839
31185,1191,845
31190,1184,845
31195,1185,853
31200,1190,861
31205,1177,860
31210,1179,867
31215,1176,876
31220,1177,886
31225,1171,886
31230,1170,893
31235,1169,888
31240,1162,895
31245,1166,896
31250,1167,903
31255,1144,910
31260,1159,902
31265,1153,908
31270,1150,907
31275,1147,912
31280,1143,912
31285,1142,907
31290,1131,910
31295,1137,909
31300,1130,915
31305,1116,912
31310,1127,918
31315,1120,911
31320,1113,910
31325,1115,912
31330,1111,913
31335,1108,909
31340,1107,907
31345,1104,911
31350,1096,906
31355,1105,901
31360,1088,900
31365,1094,893
31370,1095,896
31375,1094,890
31380,1091,896
31385,1088,896
31390,1086,888
31395,1088,890
31400,1080,887
31405,1077,882
31410,1077,883
31415,1082,881
31420,1067,874
31425,1064,877
31430,1066,873
31435,1067,875
31440,1044,873
31445,1061,867
31450,1051,865
31455,1037,867
31460,1038,867
31465,1033,865
31470,1029,864
31475,1032,860
31480,1013,863
31485,1015,856
31490,1006,854
31495,1004,856
31500,996,857
31505,986,856
31510,974,850
31515,968,847
31520,953,848
31525,959,852
31530,945,854
31535,938,848
31540,941,843
31545,931,843
31550,908,843
31555,900,838
31560,909,835
31565,888,837
31570,873,832
31575,879,825
31580,862,829
31585,850,823
31590,848,817
31595,839,817
31600,830,814
31605,820,806
31610,802,810
31615,811,805
31620,799,796
31625,791,794
31630,790,792
31635,782,781
31640,778,783
31645,777,776
31650,762,766
31655,768,769
31660,763,766
31665,752,761
31670,746,748
31675,756,744
31680,744,742
31685,752,740
31690,752,728
31695,754,728
31700,751,720
31705,755,717
31710,760,708
31715,756,708
31720,764,700
31725,764,690
31730,759,690
31735,780,690
31740,781,679
31745,785,679
31750,798,672
31755,799,665
31760,806,668
31765,820,662
31770,831,660
31775,833,657
31780,853,655
31785,850,655
31790,869,648
31795,868,648
31800,897,649
31805,902,646
31810,917,651
31815,933,648
31820,934,649
31825,953,648
31830,964,651
31835,974,648
31840,988,652
31845,998,653
31850,1017,659
31855,1012,659
31860,1030,662
31865,1043,664
31870,1056,677
31875,1058,675
31880,1071,681
31885,1088,691
31890,1091,691
31895,1102,693
31900,1106,702
31905,1125,711
31910,1131,712
31915,1136,717
31920,1140,732
31925,1138,736
31930,1156,742
31935,1161,751
31940,1166,756
31945,1165,764
31950,1170,765
31955,1178,781
31960,1181,787
31965,1187,792
31970,1183,803
31975,1192,801
31980,1189,816
31985,1186,824
31990,1186,831
31995,1193,833
32000,1185,845
32005,1187,845
32009,1190,848
32015,1183,855
32020,1187,860
32025,1184,869
32030,1181,874
32034,1185,875
32040,1162,883
32045,1170,883
32049,1168,893
32055,1161,896
32060,1159,896
32064,1158,904
32070,1162,902
32075,1150,901
32080,1139,907
32085,1143,909
32090,1141,913
32095,1139,911
32100,1135,911
32104,1131,911
32110,1142,916
32115,1124,918
32119,1125,917
32125,1122,911
32130,1113,915
32134,1121,913
32140,1110,907
32145,1113,910
32150,1105,909
32155,1109,909
32159,1095,909
32165,1108,906
32170,1092,902
32174,1097,906
32180,1105,898
32185,1101,896
32189,1092,897
32195,1082,892
32200,1087,892
32205,1081,887
32210,1078,889
32215,1076,889
32220,1088,890
32225,1074,885
32229,1078,882
32235,1075,877
32240,1066,875
32244,1066,872
32250,1065,871
32255,1053,871
32259,1054,863
32265,1056,865
32270,1044,867
32275,1050,869
32280,1038,862
32284,1032,858
32290,1027,865
32295,1025,861
32299,1021,861
32305,1015,854
32310,1010,855
32314,997,858
32320,983,856
32325,976,851
32330,972,851
32335,971,848
32340,960,850
32345,956,849
32350,939,851
32354,947,845
32360,931,843
32365,914,840
32369,915,839
32375,899,839
32380,900,834
32384,879,829
32390,870,826
32395,864,825
32400,859,823
32405,849,818
32409,842,820
32415,838,820
32420,825,813
32424,829,805
32430,811,804
32435,798,807
32439,797,792
32445,787,788
32450,789,788
32455,778,784
32460,777,776
32465,770,767
32470,766,776
32475,760,767
32479,752,759
32485,753,753
32490,741,741
32494,743,743
32500,736,736
32505,746,734
32509,750,728
32515,753,721
32520,748,717
32525,760,713
32530,754,706
32534,755,703
32540,765,698
32545,759,686
32549,761,687
32555,778,687
32560,789,680
32564,785,671
32570,797,671
32575,799,663
32580,814,669
32585,827,660
32590,827,658
32595,842,657
32600,852,651
32604,861,647
32610,877,651
32615,883,651
32619,900,643
32625,914,644
32630,918,641
32634,938,650
32640,952,653
32645,959,650
32650,967,650
32655,981,651
32659,983,652
32665,1002,657
32670,1014,661
32674,1021,657
32680,1035,666
32685,1047,676
32689,1065,673
32695,1061,679
32700,1078,683
32705,1093,694
32710,1093,699
32715,1117,699
32720,1119,710
32725,1128,707
32729,1131,723
32735,1147,729
32740,1145,731
32744,1155,738
32750,1163,744
32755,1165,755
32759,1165,763
32765,1168,771
32770,1173,777
32775,1172,783
32780,1176,788
32785,1179,801
32790,1181,807
32795,1188,808
32800,1187,823
32805,1182,824
32810,1182,832
32815,1197,834
32820,1188,845
32825,1192,855
32830,1192,857
32835,1181,854
32840,1187,867
32845,1188,868
32850,1178,874
32855,1171,883
32860,1176,886
32865,1159,890
32870,1169,897
32875,1172,895
32880,1162,897
32885,1150,899
32890,1152,907
32895,1153,907
32900,1137,910
32905,1143,916
32910,1140,914
32915,1137,909
32920,1146,911
32925,1130,910
32930,1132,918
32935,1128,910
32940,1120,912
32945,1123,914
32950,1114,912
32955,1111,909
32960,1108,914
32965,1108,906
32970,1095,908
32975,1103,906
32980,1106,907
32985,1100,907
32990,1096,906
32995,1095,903
