timestamp_ms,ir_finger,ir_toe
0,1042,631
5,1057,638
10,1070,632
15,1083,643
20,1090,650
25,1100,651
30,1112,662
35,1122,668
40,1120,672
45,1132,676
50,1151,691
55,1145,694
60,1165,699
65,1167,709
70,1175,722
75,1173,732
80,1170,738
85,1178,745
90,1189,753
95,1180,767
100,1182,778
105,1178,782
110,1186,798
115,1191,809
120,1175,811
125,1182,824
130,1182,835
135,1180,841
140,1183,849
145,1174,858
150,1169,861
155,1167,872
160,1159,881
165,1162,886
170,1169,893
175,1167,898
180,1153,905
185,1148,913
190,1138,907
195,1142,916
200,1144,922
205,1135,927
210,1128,927
215,1130,926
220,1125,926
225,1119,927
230,1123,930
235,1105,932
240,1109,927
245,1111,928
250,1106,927
255,1099,928
260,1102,932
265,1102,932
270,1100,925
275,1089,920
280,1089,911
285,1091,916
290,1083,914
295,1083,912
300,1086,908
305,1080,910
310,1074,904
315,1069,905
320,1069,902
325,1062,897
330,1057,897
335,1068,892
340,1048,894
345,1045,883
350,1044,884
355,1034,884
360,1035,877
365,1030,873
370,1013,881
375,1014,870
380,1004,866
385,995,871
390,989,866
395,984,868
400,973,867
405,970,862
410,953,859
415,950,856
420,940,859
425,935,857
430,923,855
435,912,855
440,893,851
445,888,853
450,881,850
455,860,844
460,857,836
465,849,840
470,847,835
475,827,826
480,822,832
485,810,821
490,797,819
495,787,814
500,791,816
505,789,806
510,768,805
515,771,793
520,760,791
525,758,796
530,753,777
535,752,771
540,750,767
545,751,758
550,750,751
555,749,749
560,743,739
565,757,733
570,748,719
575,755,718
580,759,709
585,775,701
590,775,700
595,785,686
600,790,686
605,804,678
610,803,673
615,820,663
620,829,661
625,833,654
630,850,654
635,871,643
640,881,640
645,886,637
650,911,632
655,908,632
660,925,630
665,942,628
670,956,627
675,959,623
680,988,624
685,994,625
690,1010,620
695,1021,627
700,1038,629
705,1048,634
710,1061,636
715,1074,639
720,1082,645
725,1100,651
730,1108,654
735,1106,665
740,1116,673
745,1131,672
750,1145,682
755,1134,695
760,1163,700
765,1167,707
770,1160,719
775,1167,726
780,1175,735
785,1186,747
790,1178,756
795,1188,759
800,1185,774
805,1196,787
810,1183,789
815,1193,805
820,1185,814
825,1181,827
830,1178,826
835,1185,841
840,1186,844
845,1182,851
850,1175,860
855,1166,876
860,1167,874
865,1167,891
870,1160,882
875,1162,901
880,1154,905
885,1155,907
890,1151,907
895,1140,913
900,1142,916
905,1142,923
910,1126,923
915,1126,927
920,1125,929
925,1133,932
930,1117,933
935,1113,930
940,1119,931
945,1113,927
950,1107,929
955,1116,929
960,1104,931
965,1094,928
970,1101,922
975,1098,926
980,1092,915
985,1078,926
990,1092,917
995,1088,910
1000,1080,914
1004,1077,912
1010,1074,910
1014,1073,905
1020,1066,901
1025,1068,898
1030,1058,900
1035,1063,894
1040,1050,893
1045,1044,891
1050,1050,886
1055,1039,884
1060,1029,881
1065,1020,876
1070,1016,875
1075,1011,874
1080,1008,876
1085,999,875
1090,992,868
1095,986,868
1100,976,867
1105,971,866
1110,960,865
1115,945,863
1120,944,857
1125,936,857
1130,917,853
1135,906,856
1140,915,851
1145,897,853
1150,884,847
1155,872,845
1160,867,841
1165,851,840
1170,844,838
1175,829,833
1180,821,832
1185,816,823
1190,803,821
1195,793,814
1200,794,818
1205,782,811
1210,775,805
1215,769,793
1220,762,797
1225,757,790
1230,752,781
1235,750,775
1240,759,767
1245,751,764
1250,751,754
1255,752,753
1260,754,742
1265,753,736
1270,752,729
1275,751,721
1280,751,718
1285,776,710
1290,773,702
1295,773,688
1300,785,685
1305,794,677
1310,808,671
1315,819,670
1320,829,661
1325,833,659
1330,844,651
1335,870,645
1340,878,638
1345,884,634
1350,891,633
1355,911,632
1360,929,624
1365,936,627
1370,953,626
1375,963,621
1380,979,621
1385,983,622
1390,1005,627
1395,1019,628
1400,1043,632
1405,1046,628
1410,1061,636
1415,1074,636
1420,1092,644
1425,1090,647
1430,1103,653
1435,1116,656
1440,1133,667
1445,1131,673
1450,1138,683
1455,1152,686
1460,1158,694
1465,1159,704
1470,1175,711
1475,1164,724
1480,1174,728
1485,1179,739
1490,1188,753
1495,1190,761
1500,1187,769
1505,1185,778
1510,1184,791
1515,1190,793
1520,1183,803
1525,1182,817
1530,1183,822
1535,1184,836
1540,1176,844
1545,1178,854
1550,1176,861
1555,1170,870
1560,1172,873
1565,1169,874
1570,1178,886
1575,1173,891
1580,1157,901
1585,1155,907
1590,1142,910
1595,1152,915
1600,1142,916
1605,1141,918
1610,1131,922
1615,1132,928
1620,1136,928
1625,1130,929
1630,1116,931
1635,1108,932
1640,1111,928
1645,1110,929
1650,1105,926
1655,1108,934
1660,1089,927
1665,1104,927
1670,1094,928
1675,1098,922
1680,1092,922
1685,1094,923
1690,1088,919
1695,1090,908
1700,1089,915
1705,1081,908
1710,1077,904
1715,1074,904
1720,1065,906
1725,1055,899
1730,1073,897
1735,1067,891
1740,1058,889
1745,1054,889
1750,1046,884
1755,1050,886
1760,1036,885
1765,1034,879
1770,1028,877
1775,1027,881
1780,1007,878
1785,1008,873
1790,995,871
1795,985,868
1800,972,868
1805,981,863
1810,960,869
1815,955,859
1820,946,864
1825,935,858
1830,925,857
1835,915,858
1840,908,854
1845,892,852
1850,890,844
1855,874,847
1860,872,846
1865,852,848
1870,842,839
1875,842,837
1880,825,834
1885,820,831
1890,820,824
1895,800,820
1900,795,818
1905,784,812
1910,783,803
1915,774,804
1920,770,793
1925,759,787
1930,761,795
1935,759,784
1940,753,777
1945,753,765
1950,753,760
1955,747,751
1960,740,746
1965,755,738
1970,757,732
1975,756,726
1980,756,717
1985,757,705
1990,778,701
1995,775,697
2000,777,692
2005,787,681
2009,808,676
2015,818,670
2020,830,667
2025,838,659
2029,840,655
2035,851,653
2040,867,638
2045,871,635
2050,889,637
2055,906,626
2060,921,629
2065,933,627
2070,953,628
2075,961,625
2080,976,624
2085,975,621
2090,1007,627
2095,1010,623
2100,1022,623
2105,1047,629
2110,1059,636
2115,1066,630
2120,1080,641
2125,1084,647
2130,1098,651
2135,1099,655
2140,1125,662
2145,1128,672
2150,1135,670
2155,1144,685
2160,1158,695
2165,1157,695
2170,1164,709
2175,1166,713
2180,1179,725
2185,1179,736
2190,1181,748
2195,1186,755
2200,1178,764
2205,1176,778
2210,1188,783
2215,1187,794
2220,1192,805
2225,1187,813
2230,1194,825
2235,1177,828
2240,1191,843
2245,1182,851
2250,1182,859
2255,1178,867
2260,1170,865
2265,1182,880
2270,1167,885
2275,1162,892
2280,1153,894
2285,1147,903
2290,1147,904
2295,1144,917
2300,1146,918
2305,1146,917
2310,1136,925
2315,1130,924
2320,1127,928
2325,1127,932
2330,1127,930
2335,1114,931
2340,1110,930
2345,1115,930
2350,1111,933
2355,1098,930
2360,1107,929
2365,1107,933
2370,1096,927
2375,1096,932
2380,1095,922
2385,1078,924
2390,1084,919
2395,1084,917
2400,1089,919
2405,1085,908
2410,1080,912
2415,1074,907
2420,1089,902
2425,1083,896
2430,1077,896
2435,1061,888
2440,1058,891
2445,1056,891
2450,1055,885
2455,1039,883
2460,1044,884
2465,1038,878
2470,1029,883
2475,1011,878
2480,1011,873
2485,1007,872
2490,995,869
2495,987,868
2500,984,871
2505,975,865
2510,972,868
2515,957,864
2520,947,862
2525,942,860
2530,933,857
2535,919,854
2540,913,849
2545,907,846
2550,885,853
2555,881,844
2560,870,846
2565,846,846
2570,852,842
2575,840,832
2580,829,837
2585,830,834
2590,814,825
2595,797,824
2600,792,814
2605,786,814
2610,786,813
2615,782,802
2620,770,790
2625,768,790
2630,759,795
2635,759,779
2640,752,776
2645,750,773
2650,752,763
2655,745,759
2660,747,748
2665,746,741
2670,743,734
2675,754,729
2680,760,723
2685,764,712
2690,773,707
2695,775,700
2700,776,692
2705,791,686
2710,794,683
2715,809,680
2720,824,666
2725,828,658
2730,840,656
2735,846,651
2740,861,644
2745,878,641
2750,890,639
2755,894,631
2760,919,634
2765,923,623
2770,936,627
2775,955,622
2780,964,624
2785,975,623
2790,992,621
2795,1001,627
2800,1027,631
2805,1037,632
2810,1047,630
2815,1056,638
2820,1064,634
2825,1087,638
2830,1101,647
2835,1102,658
2840,1121,661
2845,1121,666
2850,1135,671
2855,1146,676
2860,1138,685
2865,1160,700
2870,1166,707
2875,1169,718
2880,1169,727
2885,1181,739
2890,1168,741
2895,1174,748
2900,1181,762
2905,1193,773
2910,1184,780
2915,1183,786
2920,1187,800
2925,1190,805
2930,1186,823
2935,1183,822
2940,1186,832
2945,1191,842
2950,1177,855
2955,1173,864
2960,1168,868
2965,1177,872
2970,1168,886
2975,1166,883
2980,1150,901
2985,1151,902
2990,1151,905
2995,1151,908
3000,1135,918
3005,1141,916
3010,1133,925
3015,1141,924
3020,1132,926
3025,1128,920
3030,1122,929
3035,1111,927
3040,1120,929
3045,1116,936
3050,1120,932
3055,1119,928
3060,1104,931
3065,1103,930
3070,1104,924
3075,1091,934
3080,1106,922
3085,1091,925
3090,1091,915
3095,1093,922
3100,1080,914
3105,1082,915
3110,1076,907
3115,1089,908
3120,1084,902
3125,1070,904
3130,1072,903
3135,1059,896
3140,1054,891
3145,1058,885
3150,1056,892
3155,1055,889
3160,1043,885
3165,1028,884
3170,1037,880
3175,1027,881
3180,1012,875
3185,1025,869
3190,1006,873
3195,1000,870
3200,982,871
3205,980,867
3210,975,865
3215,965,862
3220,953,860
3225,952,858
3230,934,863
3235,923,856
3240,917,848
3245,910,851
3250,900,853
3255,884,848
3260,876,844
3265,862,840
3270,855,840
3275,842,840
3280,831,836
3285,821,830
3290,814,830
3295,806,823
3300,808,822
3305,785,813
3310,777,810
3315,786,808
3320,773,802
3325,763,793
3330,763,790
3335,760,783
3340,745,772
3345,749,779
3350,747,767
3355,739,759
3360,751,754
3365,752,744
3370,747,741
3375,746,730
3380,756,722
3385,760,718
3390,756,712
3395,769,700
3400,775,697
3405,785,685
3410,788,680
3415,805,671
3420,813,667
3425,828,667
3430,827,654
3435,844,651
3440,857,645
3445,868,641
3450,873,631
3455,885,638
3460,910,637
3465,921,632
3470,928,623
3475,943,629
3480,970,621
3485,983,623
3490,990,621
3495,1010,623
3500,1018,626
3505,1029,628
3510,1037,631
3515,1056,634
3520,1069,638
3525,1080,648
3530,1097,647
3535,1096,654
3540,1105,662
3545,1121,661
3550,1137,675
3555,1146,677
3560,1136,686
3565,1153,692
3570,1159,704
3575,1168,710
3580,1173,721
3585,1170,734
3590,1182,737
3595,1180,747
3600,1187,763
3605,1191,765
3610,1185,783
3615,1197,786
3620,1188,796
3625,1193,804
3630,1182,819
3635,1186,829
3640,1184,830
3645,1175,848
3650,1179,853
3655,1169,856
3660,1175,863
3665,1164,876
3670,1174,878
3675,1158,887
3680,1165,892
3685,1161,893
3690,1158,905
3695,1154,911
3700,1139,914
3705,1133,921
3710,1135,922
3715,1137,918
3720,1131,924
3725,1138,925
3730,1124,927
3735,1127,931
3740,1122,931
3745,1113,930
3750,1111,930
3755,1112,929
3760,1109,926
3765,1109,927
3770,1113,925
3775,1092,921
3780,1095,925
3785,1103,923
3790,1091,917
3795,1097,918
3800,1094,917
3805,1089,914
3810,1083,909
3815,1086,908
3820,1073,904
3825,1068,905
3830,1069,902
3835,1057,901
3840,1064,895
3845,1058,891
3850,1045,885
3855,1051,891
3860,1046,886
3865,1034,886
3870,1018,884
3875,1030,880
3880,1026,877
3885,1013,880
3890,1003,871
3895,1003,872
3900,994,872
3905,985,870
3910,975,868
3915,965,868
3920,965,861
3925,952,859
3930,937,859
3935,927,857
3940,912,855
3945,904,854
3950,895,855
3955,887,854
3960,877,846
3965,866,846
3970,854,840
3975,838,838
3980,832,833
3985,826,830
3990,810,832
3995,808,820
4000,803,822
4005,802,818
4010,782,817
4014,773,807
4019,769,799
4025,757,801
4030,751,795
4035,756,788
4040,754,780
4045,757,776
4050,747,764
4054,741,766
4059,747,754
4065,743,746
4070,743,736
4075,744,729
4080,750,722
4085,755,720
4090,753,712
4094,765,706
4100,778,702
4105,771,688
4110,792,677
4115,793,677
4120,805,674
4125,814,660
4130,831,659
4135,847,654
4140,848,651
4145,860,644
4150,869,640
4155,887,633
4160,905,636
4165,911,631
4170,926,622
4175,939,627
4180,956,628
4185,967,625
4190,979,624
4195,994,622
4200,1014,623
4205,1028,625
4210,1042,630
4215,1047,632
4220,1060,638
4225,1072,643
4230,1090,640
4235,1098,645
4240,1113,660
4245,1107,659
4250,1124,666
4255,1131,674
4260,1136,679
4265,1155,688
4270,1150,701
4275,1161,712
4280,1170,712
4285,1170,732
4290,1173,734
4295,1186,747
4300,1184,755
4305,1195,766
4310,1187,776
4315,1175,789
4320,1190,793
4325,1180,805
4330,1184,810
4335,1187,814
4340,1175,827
4345,1183,839
4350,1181,846
4355,1176,854
4360,1180,864
4365,1168,872
4370,1160,877
4375,1166,885
4380,1155,889
4385,1168,896
4390,1161,903
4395,1156,903
4400,1153,911
4405,1140,912
4410,1147,918
4415,1137,922
4420,1135,929
4425,1122,927
4430,1123,937
4435,1125,929
4440,1121,932
4445,1116,933
4450,1112,935
4455,1113,934
4460,1110,928
4465,1103,930
4470,1103,929
4475,1104,931
4480,1096,925
4485,1096,931
4490,1089,922
4495,1087,918
4500,1085,920
4505,1094,914
4510,1080,913
4515,1082,909
4520,1085,905
4525,1074,899
4530,1083,900
4535,1072,905
4540,1071,894
4545,1060,891
4550,1051,896
4555,1045,885
4560,1047,885
4565,1039,884
4570,1049,877
4575,1026,883
4580,1017,881
4585,1005,878
4590,1005,875
4595,992,868
4600,999,874
4605,989,869
4610,988,867
4615,971,867
4620,966,860
4625,953,862
4630,935,857
4635,933,857
4640,922,858
4645,914,854
4650,897,851
4655,895,850
4660,888,844
4665,871,846
4670,852,843
4675,853,838
4680,845,835
4685,833,836
4690,818,830
4695,814,831
4700,795,818
4705,797,821
4710,796,811
4715,778,804
4720,778,807
4725,770,794
4730,777,795
4735,753,789
4740,756,784
4745,754,779
4750,754,769
4755,759,760
4760,744,762
4765,742,753
4770,753,743
4775,755,734
4780,756,726
4785,753,723
4790,762,718
4795,772,705
4800,773,701
4805,774,694
4810,796,687
4815,800,681
4820,804,674
4825,817,665
4830,826,652
4835,838,658
4840,845,649
4845,866,643
4850,871,643
4855,884,637
4860,903,634
4865,915,633
4870,931,630
4875,941,629
4880,955,628
4885,954,619
4890,974,625
4895,992,624
4900,992,624
4905,1030,627
4910,1027,627
4915,1054,635
4920,1059,638
4925,1071,636
4930,1080,645
4935,1095,646
4940,1105,647
4945,1109,659
4950,1126,668
4955,1139,671
4960,1140,686
4965,1146,687
4970,1147,694
4975,1164,709
4980,1168,718
4985,1176,721
4990,1178,732
4995,1177,740
5000,1182,751
5005,1189,762
5010,1176,764
5015,1186,774
5020,1184,788
5025,1188,797
5030,1177,806
5035,1187,818
5040,1185,825
5045,1177,833
5050,1188,848
5055,1177,852
5060,1174,853
5065,1175,867
5070,1175,872
5075,1160,887
5080,1166,890
5085,1151,892
5090,1161,900
5095,1144,903
5100,1142,913
5105,1145,916
5110,1139,918
5115,1138,921
5120,1138,922
5125,1145,920
5130,1129,931
5135,1117,928
5140,1121,931
5145,1106,928
5150,1118,929
5155,1111,930
5160,1100,931
5165,1104,929
5170,1104,928
5175,1104,927
5180,1093,927
5185,1106,929
5190,1093,923
5195,1093,920
5200,1089,916
5205,1090,920
5210,1074,915
5215,1081,904
5220,1083,909
5225,1063,906
5230,1067,904
5235,1072,898
5240,1073,904
5245,1057,899
5250,1060,893
5255,1053,889
5260,1053,889
5265,1051,892
5270,1038,884
5275,1030,880
5280,1026,884
5285,1020,877
5290,1014,878
5295,1009,869
5300,995,870
5305,994,868
5310,982,865
5315,976,863
5320,959,863
5325,947,863
5330,936,859
5335,936,856
5340,924,860
5345,910,852
5350,899,848
5355,891,854
5360,883,846
5365,881,847
5370,865,840
5375,857,841
5380,840,839
5385,839,835
5390,827,830
5395,821,821
5400,812,821
5405,810,817
5410,801,816
5415,778,815
5420,777,809
5425,762,801
5430,759,793
5435,771,789
5440,753,782
5445,755,775
5450,749,777
5455,746,761
5460,753,764
5465,753,754
5470,741,749
5475,745,738
5480,754,738
5485,749,724
5490,751,716
5495,769,709
5500,763,703
5505,771,697
5510,796,694
5515,791,686
5520,785,679
5525,806,672
5530,817,667
5535,831,653
5540,839,653
5545,848,645
5550,862,644
5555,875,646
5560,887,637
5565,902,635
5570,915,624
5575,928,628
5580,942,625
5585,959,628
5590,976,625
5595,980,628
5600,1005,625
5605,1014,623
5610,1032,628
5615,1036,635
5620,1051,631
5625,1060,636
5630,1076,644
5635,1085,647
5640,1090,646
5645,1107,653
5650,1124,661
5655,1132,667
5660,1139,672
5665,1137,687
5670,1150,691
5675,1172,710
5680,1163,711
5685,1165,716
5690,1179,728
5695,1182,739
5700,1179,746
5705,1180,757
5710,1196,764
5715,1181,774
5720,1183,784
5725,1181,793
5730,1189,802
5735,1187,814
5740,1191,816
5745,1184,826
5750,1188,840
5755,1183,848
5760,1177,861
5765,1184,865
5770,1177,871
5775,1175,874
5780,1168,889
5785,1161,894
5790,1152,900
5795,1156,902
5800,1150,913
5805,1150,913
5810,1143,914
5815,1143,913
5820,1135,919
5825,1120,919
5830,1127,932
5835,1122,929
5840,1111,928
5845,1114,930
5850,1119,932
5855,1111,931
5860,1111,932
5865,1105,937
5870,1106,929
5875,1106,926
5880,1102,927
5885,1108,926
5890,1106,922
5895,1091,919
5900,1093,918
5905,1091,923
5910,1087,912
5915,1086,909
5920,1076,905
5925,1088,909
5930,1069,906
5935,1068,903
5940,1073,898
5945,1068,898
5950,1064,894
5955,1045,888
5960,1053,887
5965,1045,886
5970,1030,884
5975,1035,883
5980,1030,881
5985,1024,877
5990,1016,871
5995,1004,876
6000,1000,869
6005,982,864
6010,994,868
6015,976,870
6020,953,867
6025,952,867
6030,957,861
6035,936,862
6040,933,857
6045,922,853
6050,910,854
6055,896,852
6060,901,851
6065,885,855
6070,874,846
6075,852,846
6080,849,839
6085,839,830
6090,824,829
6095,820,830
6100,813,824
6105,801,823
6110,792,813
6115,790,814
6120,783,816
6125,775,800
6130,768,794
6135,761,795
6140,759,785
6145,758,778
6150,749,778
6155,753,767
6160,745,762
6165,748,756
6170,750,747
6175,742,738
6180,750,735
6185,747,730
6190,755,725
6195,766,720
6200,771,710
6205,770,696
6210,777,693
6215,778,685
6220,797,682
6225,808,673
6230,818,666
6235,825,658
6240,837,653
6245,850,651
6250,858,648
6255,871,646
6260,881,630
6265,895,638
6270,916,630
6275,924,633
6280,939,626
6285,966,630
6290,968,620
6295,979,622
6300,989,624
6305,1013,627
6310,1017,627
6315,1029,632
6320,1044,638
6325,1059,634
6330,1075,640
6335,1088,643
6340,1096,647
6345,1099,657
6350,1107,665
6355,1122,664
6360,1128,668
6365,1148,681
6370,1147,688
6375,1156,703
6380,1164,705
6385,1169,713
6390,1175,725
6395,1176,732
6400,1181,745
6405,1184,753
6410,1179,759
6415,1197,776
6420,1194,782
6425,1188,795
6430,1190,799
6435,1190,812
6440,1190,820
6445,1187,828
6450,1192,838
6455,1181,845
6460,1180,857
6465,1168,863
6470,1176,870
6475,1168,877
6480,1161,881
6485,1159,887
6490,1162,896
6495,1158,901
6500,1155,909
6505,1151,915
6510,1143,912
6515,1140,919
6520,1130,920
6525,1128,927
6530,1132,927
6535,1135,925
6540,1119,928
6545,1118,930
6550,1125,937
6555,1105,935
6560,1109,931
6565,1100,927
6570,1110,936
6575,1107,924
6580,1093,929
6585,1092,926
6590,1088,925
6595,1089,923
6600,1095,918
6605,1082,915
6610,1081,916
6615,1081,912
6620,1073,910
6625,1078,910
6630,1073,904
6635,1075,905
6640,1071,902
6645,1067,894
6650,1065,893
6655,1063,889
6660,1051,886
6665,1054,888
6670,1039,882
6675,1035,874
6680,1025,882
6685,1020,878
6690,1025,878
6695,1011,873
6700,1012,870
6705,999,869
6710,985,868
6715,981,869
6720,967,862
6725,961,869
6730,957,861
6735,950,858
6740,931,858
6745,919,856
6750,910,856
6755,900,846
6760,902,848
6765,878,850
6770,875,848
6775,863,844
6780,859,841
6785,844,840
6790,836,837
6795,828,831
6800,824,823
6805,806,829
6810,799,818
6815,800,813
6820,780,813
6825,771,803
6830,762,798
6835,766,797
6840,754,786
6845,761,784
6850,751,779
6855,746,772
6860,741,766
6865,744,765
6870,745,756
6875,743,743
6880,753,739
6885,753,727
6890,760,727
6895,771,711
6900,770,711
6905,763,702
6910,785,696
6915,789,685
6920,791,680
6925,808,673
6930,801,671
6935,821,659
6940,833,657
6945,848,646
6950,857,649
6955,873,646
6960,885,643
6965,908,638
6970,905,630
6975,918,633
6980,942,629
6985,952,622
6990,964,627
6995,966,621
7000,989,623
7005,1008,623
7010,1014,628
7015,1034,628
7020,1041,636
7025,1046,630
7030,1067,639
7035,1082,644
7040,1085,648
7045,1100,657
7050,1108,654
7055,1120,662
7060,1130,671
7065,1134,683
7070,1141,688
7075,1158,692
7080,1165,709
7085,1166,707
7090,1167,719
7095,1171,725
7100,1180,735
7105,1185,749
7110,1184,758
7115,1180,767
7120,1183,776
7125,1191,785
7130,1189,797
7135,1187,813
7140,1175,818
7145,1177,823
7150,1177,834
7155,1191,843
7160,1175,852
7165,1175,859
7170,1172,866
7175,1171,871
7180,1168,881
7185,1167,891
7190,1159,895
7195,1152,896
7200,1154,898
7205,1141,908
7210,1148,910
7215,1143,910
7220,1145,921
7225,1131,921
7230,1133,922
7235,1130,925
7240,1116,927
7245,1117,930
7250,1121,934
7255,1100,934
7260,1116,930
7265,1113,930
7270,1104,929
7275,1103,931
7280,1109,930
7285,1106,931
7290,1093,929
7295,1094,927
7300,1093,922
7305,1082,916
7310,1082,913
7315,1076,913
7320,1088,910
7325,1088,907
7330,1070,909
7335,1074,903
7340,1060,908
7345,1061,899
7350,1059,892
7355,1053,896
7360,1052,892
7365,1041,891
7370,1043,888
7375,1033,890
7380,1035,882
7385,1030,876
7390,1019,874
7395,1017,878
7400,1013,874
7405,1001,869
7410,1001,871
7415,979,873
7420,971,862
7425,969,862
7430,957,864
7435,946,857
7440,940,864
7445,936,856
7450,923,851
7455,902,852
7460,905,847
7465,889,849
7470,877,848
7475,877,843
7480,861,842
7485,845,837
7490,834,834
7495,824,831
7500,815,835
7505,806,828
7510,805,823
7515,795,810
7520,791,817
7525,776,808
7530,776,800
7535,760,798
7540,758,790
7545,755,785
7550,756,774
7555,748,775
7560,756,764
7565,749,758
7570,745,756
7575,756,745
7580,744,737
7585,751,735
7590,750,728
7595,755,723
7600,763,714
7605,772,703
7610,765,694
7615,775,696
7620,793,685
7625,807,674
7630,809,668
7635,820,665
7640,818,660
7645,849,658
7650,850,646
7655,855,647
7660,877,639
7665,888,641
7670,907,633
7675,917,625
7680,931,628
7685,942,622
7690,948,622
7695,965,622
7700,983,620
7705,989,621
7710,1007,627
7715,1035,628
7720,1028,628
7725,1048,638
7730,1060,637
7735,1080,638
7740,1078,644
7745,1106,647
7750,1100,652
7755,1110,665
7760,1127,669
7765,1137,682
7770,1145,684
7775,1155,694
7780,1160,703
7785,1165,706
7790,1169,714
7795,1168,719
7800,1178,736
7805,1180,740
7810,1192,756
7815,1180,763
7820,1198,775
7825,1191,789
7830,1197,795
7835,1193,802
7840,1186,815
7845,1186,819
7850,1186,831
7855,1183,837
7860,1185,848
7865,1180,853
7870,1176,859
7875,1170,878
7880,1169,881
7885,1165,886
7890,1174,887
7895,1158,893
7900,1142,905
7905,1152,903
7910,1147,913
7915,1146,912
7920,1137,918
7925,1133,914
7930,1133,924
7935,1124,923
7940,1117,930
7945,1123,927
7950,1120,935
7955,1107,926
7960,1116,931
7965,1115,934
7970,1109,933
7975,1096,926
7980,1100,927
7985,1094,925
7990,1099,923
7995,1086,923
8000,1099,922
8005,1091,920
8010,1091,920
8015,1083,915
8020,1080,907
8025,1074,911
8029,1074,907
8035,1069,905
8039,1069,903
8045,1072,899
8050,1068,896
8055,1055,894
8060,1057,893
8064,1050,890
8070,1035,884
8074,1041,882
8080,1039,878
8085,1040,881
8090,1025,880
8095,1010,876
8100,997,873
8105,1007,869
8109,992,869
8115,985,870
8119,979,861
8125,965,869
8130,959,867
8135,949,861
8140,942,854
8145,932,859
8150,925,859
8154,921,855
8160,899,850
8164,892,848
8170,879,844
8175,874,846
8180,872,849
8185,857,838
8189,841,836
8195,835,836
8200,819,832
8205,811,830
8210,804,827
8215,790,822
8220,793,810
8225,775,806
8230,783,803
8235,766,797
8240,762,789
8245,763,785
8250,753,779
8255,755,772
8260,742,770
8265,755,763
8270,747,753
8275,738,752
8280,748,744
8285,754,742
8290,751,733
8295,749,720
8300,763,714
8305,764,708
8310,763,701
8315,780,695
8320,790,689
8325,797,677
8330,804,676
8335,812,665
8340,820,655
8345,835,660
8350,847,653
8355,859,641
8360,875,639
8365,883,635
8370,900,636
8375,907,630
8380,927,630
8385,946,631
8390,947,629
8395,963,630
8400,980,618
8405,991,631
8410,1011,628
8415,1023,627
8420,1035,626
8425,1039,626
8430,1048,639
8435,1066,635
8440,1073,646
8445,1096,650
8450,1102,649
8455,1113,660
8460,1122,663
8465,1130,675
8470,1139,675
8475,1152,690
8480,1154,693
8485,1160,706
8490,1162,714
8495,1171,724
8500,1179,737
8505,1178,742
8510,1179,754
8515,1179,753
8520,1200,768
8525,1187,782
8530,1186,788
8535,1195,802
8540,1177,808
8545,1182,813
8550,1184,825
8555,1187,834
8560,1184,837
8565,1171,849
8570,1174,864
8575,1163,867
8580,1176,875
8585,1174,880
8590,1154,887
8595,1166,893
8600,1151,894
8605,1157,910
8610,1155,908
8615,1136,914
8620,1142,916
8625,1135,917
8630,1132,922
8635,1130,921
8640,1126,929
8645,1127,927
8650,1127,933
8655,1113,933
8660,1112,934
8665,1113,931
8670,1106,932
8675,1104,933
8680,1104,923
8685,1100,929
8690,1101,922
8695,1103,925
8700,1096,925
8705,1082,921
8710,1087,915
8715,1094,918
8720,1091,912
8725,1087,910
8730,1075,909
8735,1075,905
8740,1077,904
8745,1066,898
8750,1066,898
8755,1066,895
8760,1060,889
8765,1057,890
8770,1050,889
8775,1028,882
8780,1034,883
8785,1028,877
8790,1021,875
8795,1019,873
8800,1011,878
8805,1003,876
8810,995,872
8815,989,870
8820,984,867
8825,972,866
8830,975,863
8835,954,854
8840,942,861
8845,939,858
8850,925,855
8855,901,856
8860,906,858
8865,905,853
8870,888,853
8875,877,847
8880,860,847
8885,852,840
8890,829,842
8895,834,836
8900,816,825
8905,824,825
8910,810,823
8915,793,819
8920,794,817
8925,789,808
8930,769,805
8935,773,800
8940,759,800
8945,759,792
8950,752,788
8955,762,780
8960,748,774
8965,757,765
8970,754,760
8975,748,749
8980,751,749
8985,753,737
8990,750,732
8995,753,723
9000,763,717
9005,750,707
9010,774,703
9015,779,697
9020,793,685
9025,796,684
9030,808,674
9035,806,671
9040,817,661
9045,830,659
9050,845,654
9055,859,646
9060,873,641
9065,882,645
9070,888,635
9075,911,628
9080,921,631
9085,930,623
9090,945,623
9095,956,626
9100,974,624
9105,991,623
9110,995,625
9115,1021,624
9120,1028,629
9125,1035,633
9130,1063,629
9135,1065,640
9140,1068,642
9145,1082,649
9150,1100,648
9155,1108,656
9160,1122,665
9165,1129,670
9170,1135,674
9175,1148,688
9180,1154,693
9185,1160,697
9190,1170,712
9195,1165,711
9200,1175,733
9205,1174,735
9210,1185,745
9215,1187,751
9220,1188,764
9225,1189,779
9230,1185,787
9235,1188,800
9240,1191,808
9245,1185,810
9250,1182,825
9255,1198,828
9260,1177,840
9265,1185,843
9270,1177,860
9275,1176,864
9280,1164,868
9285,1171,883
9290,1165,885
9295,1159,893
9300,1158,898
9305,1146,904
9310,1145,908
9315,1143,916
9320,1145,921
9325,1141,921
9330,1136,921
9335,1137,924
9340,1122,925
9345,1124,926
9350,1122,928
9355,1116,927
9360,1115,938
9365,1117,929
9370,1103,936
9375,1103,934
9380,1101,928
9385,1100,927
9390,1093,925
9395,1096,918
9400,1096,928
9405,1095,919
9410,1089,918
9415,1087,914
9420,1079,911
9425,1078,913
9430,1084,905
9435,1077,906
9440,1074,906
9445,1070,900
9450,1062,897
9455,1062,892
9460,1057,891
9465,1054,891
9470,1047,887
9475,1044,889
9480,1039,883
9485,1031,881
9490,1029,883
9495,1024,878
9500,1012,873
9505,1019,875
9510,998,871
9515,993,869
9520,982,870
9525,968,869
9530,967,870
9535,942,863
9540,943,860
9545,937,863
9550,938,859
9555,913,856
9560,914,855
9565,896,848
9570,898,854
9575,882,846
9580,870,842
9585,855,843
9590,846,841
9595,846,836
9600,822,832
9605,826,828
9610,814,825
9615,798,820
9620,803,816
9625,777,814
9630,776,805
9635,775,803
9640,764,797
9645,772,791
9650,764,794
9655,753,775
9660,757,774
9665,742,765
9670,746,759
9675,747,749
9680,753,749
9685,743,742
9690,750,730
9695,755,724
9700,756,723
9705,770,712
9710,770,705
9715,767,701
9720,785,696
9725,784,683
9730,800,681
9735,810,669
9740,818,666
9745,827,666
9750,829,653
9755,851,651
9760,858,645
9765,871,639
9770,897,640
9775,899,631
9780,911,625
9785,935,631
9790,943,622
9795,957,626
9800,959,627
9805,975,623
9810,980,628
9815,1015,625
9820,1024,628
9825,1037,629
9830,1055,630
9835,1055,638
9840,1068,640
9845,1084,640
9850,1096,645
9855,1115,657
9860,1112,660
9865,1125,670
9870,1132,672
9875,1137,684
9880,1142,687
9885,1161,699
9890,1161,709
9895,1176,708
9900,1168,719
9905,1173,736
9910,1179,748
9915,1180,752
9920,1185,762
9925,1195,774
9930,1182,785
9935,1181,789
9940,1203,800
9945,1197,815
9950,1188,822
9955,1188,825
9960,1175,837
9965,1180,843
9970,1172,854
9975,1178,867
9980,1177,869
9985,1167,878
9990,1158,882
9995,1156,888
10000,1155,893
10005,1149,900
10010,1156,904
10015,1143,911
10020,1153,911
10025,1138,919
10030,1131,927
10035,1140,924
10040,1128,931
10045,1130,925
10050,1111,927
10055,1113,934
10060,1118,930
10065,1106,930
10070,1115,932
10075,1106,928
10080,1112,931
10085,1105,928
10090,1108,929
10095,1094,932
10100,1085,922
10105,1097,920
10110,1088,917
10115,1087,915
10120,1084,918
10125,1077,916
10130,1078,908
10135,1075,906
10140,1071,902
10145,1073,901
10150,1064,899
10155,1061,902
10160,1060,900
10165,1058,898
10170,1046,889
10175,1042,887
10180,1034,884
10185,1026,878
10190,1026,880
10195,1027,878
10200,1017,875
10205,1017,875
10210,1006,872
10215,991,874
10220,986,870
10225,988,872
10230,971,865
10235,966,867
10240,955,860
10245,941,863
10250,925,855
10255,923,855
10260,905,854
10265,906,852
10270,898,845
10275,882,846
10280,870,849
10285,866,843
10290,848,844
10295,839,829
10300,833,840
10305,822,833
10310,817,832
10315,803,824
10320,801,821
10325,787,812
10330,773,808
10335,771,804
10340,763,803
10345,770,798
10350,769,784
10355,769,783
10360,756,776
10365,747,769
10370,755,764
10375,750,753
10380,740,744
10385,744,744
10390,760,734
10395,751,736
10400,760,726
10405,760,711
10410,766,709
10415,769,700
10420,779,697
10425,786,685
10430,798,679
10435,792,673
10440,810,670
10445,824,656
10450,832,659
10455,848,655
10460,855,644
10465,871,649
10470,893,637
10475,890,641
10480,912,631
10485,914,632
10490,940,625
10495,953,627
10500,964,624
10505,980,631
10510,986,621
10515,1001,624
10520,1010,625
10525,1023,633
10530,1037,631
10535,1055,635
10540,1063,636
10545,1082,640
10550,1092,651
10555,1104,654
10560,1109,665
10565,1118,666
10570,1124,673
10575,1144,675
10580,1146,687
10585,1149,690
10590,1164,706
10595,1164,707
10600,1169,722
10605,1180,725
10610,1177,729
10615,1178,745
10620,1184,749
10625,1185,772
10630,1183,778
10635,1195,792
10640,1187,796
10645,1187,806
10650,1179,817
10655,1183,827
10660,1189,837
10665,1181,839
10670,1185,852
10675,1176,856
10680,1171,865
10685,1167,876
10690,1167,882
10695,1165,883
10700,1163,892
10705,1156,898
10710,1154,907
10715,1141,904
10720,1145,909
10725,1152,911
10730,1135,913
10735,1133,923
10740,1113,926
10745,1121,921
10750,1123,927
10755,1125,930
10760,1115,931
10765,1114,931
10770,1108,930
10775,1108,928
10780,1114,925
10785,1100,928
10790,1098,922
10795,1104,926
10800,1096,923
10805,1095,919
10810,1092,924
10815,1088,919
10820,1092,912
10825,1085,917
10830,1083,909
10835,1085,908
10840,1078,902
10845,1078,904
10850,1070,902
10855,1074,899
10860,1054,890
10865,1050,894
10870,1052,890
10875,1048,887
10880,1047,888
10885,1044,885
10890,1028,878
10895,1030,873
10900,1024,876
10905,1009,878
10910,1010,871
10915,1004,869
10920,989,868
10925,976,871
10930,978,867
10935,977,868
10940,962,862
10945,947,866
10950,941,855
10955,930,858
10960,926,851
10965,910,851
10970,891,853
10975,888,851
10980,874,847
10985,873,846
10990,861,845
10995,859,832
11000,838,833
11005,823,829
11010,814,823
11015,818,828
11020,790,820
11025,795,815
11030,780,811
11035,785,807
11040,767,805
11045,769,802
11050,764,797
11055,754,787
11060,751,782
11065,748,776
11070,754,771
11075,741,758
11080,744,754
11085,754,748
11090,751,740
11095,752,735
11100,753,727
11105,763,717
11110,757,714
11115,764,705
11120,768,698
11125,782,695
11130,791,688
11135,798,670
11140,803,669
11145,809,665
11150,833,657
11155,841,648
11160,851,649
11165,861,643
11170,880,635
11175,889,638
11180,907,639
11185,915,632
11190,929,629
11195,941,620
11200,954,629
11205,977,623
11210,988,629
11215,990,622
11220,1005,630
11225,1018,627
11230,1041,634
11235,1055,637
11240,1068,634
11245,1079,643
11250,1083,646
11255,1095,648
11260,1115,652
11265,1125,666
11270,1129,669
11275,1138,680
11280,1131,682
11285,1149,691
11290,1160,704
11295,1167,708
11300,1167,719
11305,1174,724
11310,1182,732
11315,1181,745
11320,1177,751
11325,1186,765
11330,1189,774
11335,1193,778
11340,1181,790
11345,1188,798
11350,1189,805
11355,1180,819
11360,1188,830
11365,1188,840
11370,1185,845
11375,1182,854
11380,1171,862
11385,1173,868
11390,1160,881
11395,1171,884
11400,1169,884
11405,1165,900
11410,1152,898
11415,1152,907
11420,1149,908
11425,1149,915
11430,1140,922
11435,1135,922
11440,1139,920
11445,1125,933
11450,1130,930
11455,1124,932
11460,1122,928
11465,1115,929
11470,1119,927
11475,1113,930
11480,1112,928
11485,1101,928
11490,1103,928
11495,1107,926
11500,1099,919
11505,1095,928
11510,1096,920
11515,1091,913
11520,1074,916
11525,1080,915
11530,1087,913
11535,1073,913
11540,1075,911
11545,1075,903
11550,1074,900
11555,1068,900
11560,1058,895
11565,1060,892
11570,1059,895
11575,1043,896
11580,1055,889
11585,1044,883
11590,1019,886
11595,1028,885
11600,1022,874
11605,1009,870
11610,1011,876
11615,1000,872
11620,993,877
11625,978,869
11630,975,866
11635,970,863
11640,963,862
11645,949,862
11650,943,860
11655,928,857
11660,920,858
11665,910,855
11670,896,853
11675,896,855
11680,881,847
11685,866,835
11690,854,840
11695,858,838
11700,850,836
11705,824,833
11710,817,827
11715,815,828
11720,799,819
11725,792,821
11730,787,808
11735,787,810
11740,771,805
11745,774,800
11750,760,791
11755,750,788
11760,750,779
11765,746,776
11770,745,775
11775,746,761
11780,745,756
11785,751,749
11790,747,741
11795,762,731
11800,762,726
11805,752,725
11810,767,717
11815,755,709
11820,765,700
11825,785,698
11830,791,684
11835,795,676
11840,806,672
11845,815,667
11850,819,664
11855,842,655
11860,844,656
11865,857,644
11870,874,646
11875,879,633
11880,893,633
11885,911,628
11890,925,629
11895,929,627
11900,951,625
11905,971,628
11910,976,620
11915,991,626
11920,1008,626
11925,1029,626
11930,1030,626
11935,1039,632
11940,1054,633
11945,1069,640
11950,1082,640
11955,1086,648
11960,1106,650
11965,1103,663
11970,1135,667
11975,1123,670
11980,1140,680
11985,1147,694
11990,1149,698
11995,1149,705
12000,1161,713
12005,1175,716
12010,1185,730
12015,1174,741
12020,1187,752
12025,1186,763
12030,1175,773
12035,1193,784
12040,1187,783
12045,1185,799
12050,1188,813
12055,1193,814
12060,1186,823
12065,1177,833
12070,1181,837
12075,1178,850
12080,1178,856
12085,1175,867
12090,1173,872
12095,1174,881
12100,1159,892
12105,1156,892
12110,1157,901
12115,1153,904
12120,1149,908
12125,1147,920
12130,1131,919
12135,1139,915
12140,1136,923
12145,1132,924
12150,1124,927
12155,1127,922
12160,1121,931
12165,1118,932
12170,1105,932
12175,1118,928
12180,1096,936
12185,1123,926
12190,1097,924
12195,1092,928
12200,1104,929
12205,1100,926
12210,1088,920
12215,1094,923
12220,1092,925
12225,1082,920
12230,1084,913
12235,1076,912
12240,1085,912
12245,1073,904
12250,1075,904
12255,1065,899
12260,1068,902
12265,1058,898
12270,1058,892
12275,1053,892
12280,1048,888
12285,1046,886
12290,1036,884
12295,1024,879
12300,1026,881
12305,1012,881
12310,1008,876
12315,1012,872
12320,994,867
12325,980,869
12330,981,866
12335,975,868
12340,957,868
12345,960,867
12350,947,865
12355,943,858
12360,923,857
12365,912,852
12370,902,855
12375,887,849
12380,879,847
12385,874,842
12390,867,840
12395,843,844
12400,854,835
12405,840,834
12410,830,833
12415,819,830
12420,807,823
12425,807,822
12430,802,813
12435,782,813
12440,772,805
12445,774,804
12450,766,803
12455,767,793
12460,758,784
12465,753,781
12470,749,774
12475,745,766
12480,754,760
12485,749,753
12490,755,747
12495,750,738
12500,755,727
12505,754,725
12510,762,714
12515,768,706
12520,767,700
12525,760,693
12530,784,695
12535,795,681
12540,802,682
12545,809,671
12550,824,668
12555,829,657
12560,848,656
12565,863,652
12570,869,646
12575,878,638
12580,893,630
12585,904,635
12590,924,627
12595,933,628
12600,948,624
12605,963,620
12610,975,628
12615,991,631
12620,991,623
12625,1019,623
12630,1034,624
12635,1045,632
12640,1058,635
12645,1056,632
12650,1074,638
12655,1092,646
12660,1099,648
12665,1110,663
12670,1119,665
12675,1131,665
12680,1138,672
12685,1142,682
12690,1145,692
12695,1154,701
12700,1167,711
12705,1167,718
12710,1172,724
12715,1177,737
12720,1186,746
12725,1182,758
12730,1192,767
12735,1199,780
12740,1189,783
12745,1190,796
12750,1179,808
12755,1191,810
12760,1184,820
12765,1184,830
12770,1179,839
12775,1177,852
12780,1174,857
12785,1172,863
12790,1177,867
12795,1171,881
12800,1168,888
12805,1165,892
12810,1159,896
12815,1142,905
12820,1152,911
12825,1139,914
12830,1141,916
12835,1124,919
12840,1133,917
12845,1137,926
12850,1133,926
12855,1122,927
12860,1118,932
12865,1123,932
12870,1113,931
12875,1123,929
12880,1103,931
12885,1112,929
12890,1101,927
12895,1108,928
12900,1095,924
12905,1105,922
12910,1094,922
12915,1093,915
12920,1087,921
12925,1088,920
12930,1082,915
12935,1086,915
12940,1077,914
12945,1075,912
12950,1075,898
12955,1069,899
12960,1075,896
12965,1062,895
12970,1056,894
12975,1046,890
12980,1042,887
12985,1039,887
12990,1042,887
12995,1023,881
13000,1022,879
13005,1013,878
13010,1012,871
13015,1005,872
13020,1006,871
13025,991,874
13030,984,863
13035,977,868
13040,961,860
13045,956,864
13050,945,859
13055,947,858
13060,935,858
13065,910,853
13070,916,855
13075,891,857
13080,898,843
13085,886,849
13090,866,845
13095,860,844
13100,849,840
13105,842,832
13110,827,835
13115,812,825
13120,808,824
13125,804,820
13130,789,818
13135,787,816
13140,774,810
13145,772,805
13150,772,795
13155,774,792
13160,749,789
13165,753,778
13170,749,778
13175,746,768
13180,751,765
13185,744,758
13190,743,742
13195,744,742
13200,749,736
13205,759,731
13210,761,717
13215,765,714
13220,772,706
13225,776,700
13230,778,695
13235,778,690
13240,800,677
13245,812,675
13250,813,667
13255,819,661
13260,841,653
13265,848,654
13270,855,643
13275,878,639
13280,889,635
13285,899,637
13290,914,633
13295,922,635
13300,938,624
13305,947,625
13310,965,622
13315,988,626
13320,992,626
13325,1013,625
13330,1019,627
13335,1033,632
13340,1043,629
13345,1061,639
13350,1076,637
13355,1092,639
13360,1086,648
13365,1114,653
13370,1114,660
13375,1125,667
13380,1137,671
13385,1138,683
13390,1142,690
13395,1157,699
13400,1158,705
13405,1161,718
13410,1172,731
13415,1180,733
13420,1184,742
13425,1175,753
13430,1196,760
13435,1184,775
13440,1182,779
13445,1177,793
13450,1185,795
13455,1185,809
13460,1184,819
13465,1180,828
13470,1191,832
13475,1173,850
13480,1177,852
13485,1178,864
13490,1170,869
13495,1168,879
13500,1166,882
13505,1163,887
13510,1161,892
13515,1150,903
13520,1147,902
13525,1151,905
13530,1137,917
13535,1146,916
13540,1141,925
13545,1127,924
13550,1127,928
13555,1120,924
13560,1115,930
13565,1107,929
13570,1114,931
13575,1112,929
13580,1101,928
13585,1107,933
13590,1094,929
13595,1106,932
13600,1094,931
13605,1096,928
13610,1093,929
13615,1083,918
13620,1086,919
13625,1081,915
13630,1091,919
13635,1084,912
13640,1079,907
13645,1087,903
13650,1072,899
13655,1067,902
13660,1077,903
13665,1058,899
13670,1065,893
13675,1061,895
13680,1057,894
13685,1045,881
13690,1035,885
13695,1034,884
13700,1034,875
13705,1025,879
13710,1007,877
13715,1011,875
13720,997,874
13725,995,868
13730,993,868
13735,989,871
13740,965,864
13745,963,868
13750,948,861
13755,950,857
13760,930,856
13765,919,854
13770,923,856
13775,902,854
13780,889,851
13785,878,851
13790,870,848
13795,859,839
13800,855,838
13805,840,835
13810,826,836
13815,821,833
13820,813,830
13825,815,822
13830,795,824
13835,796,817
13840,788,812
13845,781,806
13850,775,798
13855,759,794
13860,755,789
13865,755,781
13870,753,771
13875,745,772
13880,739,765
13885,748,754
13890,749,748
13895,754,746
13900,736,735
13905,746,736
13910,761,727
13915,770,717
13920,771,709
13925,776,701
13930,771,698
13935,791,683
13940,785,682
13945,802,671
13950,804,669
13955,820,661
13960,835,659
13965,841,651
13970,856,648
13975,859,647
13980,884,641
13985,890,638
13990,911,628
13995,917,629
14000,935,627
14005,945,629
14010,945,623
14015,980,630
14020,985,620
14025,1008,626
14030,1013,626
14035,1028,626
14040,1042,629
14045,1050,628
14050,1068,636
14055,1080,646
14060,1084,650
14065,1095,657
14070,1110,662
14075,1116,668
14080,1124,668
14085,1147,673
14090,1137,687
14095,1161,694
14100,1154,707
14105,1168,714
14110,1164,723
14115,1168,730
14120,1176,736
14125,1177,749
14130,1187,755
14135,1180,771
14140,1192,778
14145,1185,786
14150,1188,794
14155,1195,804
14160,1188,811
14165,1179,824
14170,1183,833
14175,1179,841
14180,1175,851
14185,1187,857
14190,1181,864
14195,1165,874
14200,1170,881
14205,1160,884
14210,1170,892
14215,1154,899
14220,1154,904
14225,1142,903
14230,1150,906
14235,1141,915
14240,1142,915
14245,1125,919
14250,1134,921
14255,1129,923
14260,1121,928
14265,1128,927
14270,1123,928
14275,1116,932
14280,1112,931
14285,1099,931
14290,1117,928
14295,1096,927
14300,1105,929
14305,1099,923
14310,1095,924
14315,1088,925
14320,1087,917
14325,1088,916
14330,1085,915
14335,1087,916
14340,1078,906
14345,1089,908
14350,1076,903
14355,1066,904
14360,1065,900
14365,1068,896
14370,1067,895
14375,1057,890
14380,1055,887
14385,1047,889
14390,1046,886
14395,1036,882
14400,1032,882
14405,1024,881
14410,1024,876
14415,1015,876
14420,1006,872
14425,987,869
14430,999,870
14435,983,870
14440,979,867
14445,963,868
14450,958,865
14455,944,855
14460,936,859
14465,917,859
14470,930,857
14475,904,859
14480,890,853
14485,885,846
14490,877,845
14495,861,845
14500,852,839
14505,852,839
14510,833,836
14515,828,828
14520,817,833
14525,815,821
14530,800,820
14535,793,815
14540,786,816
14545,784,807
14550,769,799
14555,764,799
14560,765,786
14565,754,784
14570,755,778
14575,743,771
14580,754,771
14585,747,756
14590,755,756
14595,750,748
14600,744,748
14605,754,736
14610,761,727
14615,756,719
14620,768,709
14625,770,706
14630,768,694
14635,783,693
14640,788,682
14645,798,676
14650,800,677
14655,819,668
14660,831,659
14665,831,652
14670,850,653
14675,854,645
14680,883,640
14685,889,634
14690,906,634
14695,913,633
14700,927,629
14705,944,628
14710,957,630
14715,963,623
14720,986,624
14725,999,625
14730,1010,626
14735,1031,626
14740,1036,629
14745,1038,632
14750,1061,643
14755,1074,639
14760,1086,644
14765,1096,643
14770,1117,657
14775,1120,661
14780,1131,667
14785,1133,674
14790,1132,685
14795,1150,698
14800,1153,698
14805,1164,705
14810,1155,721
14815,1169,729
14820,1177,735
14825,1182,746
14830,1192,753
14835,1191,761
14840,1191,771
14845,1187,780
14850,1183,790
14855,1187,799
14860,1187,809
14865,1190,817
14870,1175,827
14875,1187,835
14880,1190,847
14885,1178,853
14890,1171,859
14895,1179,867
14900,1169,878
14905,1162,885
14910,1153,893
14915,1168,898
14920,1149,898
14925,1155,906
14930,1151,908
14935,1140,915
14940,1136,918
14945,1132,924
14950,1135,928
14955,1127,927
14960,1126,929
14965,1122,930
14970,1124,929
14975,1113,932
14980,1112,930
14985,1106,933
14990,1104,929
14995,1102,933
15000,1095,933
15005,1106,929
15010,1100,927
15015,1094,922
15020,1096,919
15025,1075,922
15030,1086,921
15035,1087,913
15040,1075,909
15045,1076,902
15050,1078,907
15055,1070,904
15060,1063,895
15065,1067,893
15070,1060,897
15075,1055,893
15080,1052,891
15085,1052,888
15090,1046,887
15095,1048,883
15100,1033,882
15105,1032,873
15110,1029,883
15115,1020,875
15120,1008,874
15125,998,874
15130,998,866
15135,985,870
15140,987,865
15145,970,868
15150,964,868
15155,959,862
15160,946,862
15165,931,854
15170,926,859
15175,916,854
15180,909,845
15185,896,852
15190,872,848
15195,869,845
15200,858,844
15205,844,841
15210,837,841
15215,827,831
15220,819,833
15225,818,830
15230,810,821
15235,804,817
15240,782,814
15245,778,812
15250,777,802
15255,767,800
15260,768,792
15265,760,785
15270,756,782
15275,751,776
15280,746,772
15285,751,767
15290,749,753
15295,750,753
15300,754,740
15305,763,734
15310,759,724
15315,759,716
15320,765,716
15325,774,709
15330,774,695
15335,777,700
15340,792,686
15345,797,678
15350,810,673
15355,811,661
15360,828,661
15365,838,658
15370,843,649
15375,861,647
15380,869,640
15385,891,636
15390,903,637
15395,914,636
15400,915,627
15405,937,628
15410,948,627
15415,964,628
15420,980,623
15425,993,620
15430,1016,627
15435,1011,631
15440,1031,625
15445,1044,636
15450,1057,635
15455,1071,636
15460,1083,646
15465,1096,648
15470,1105,657
15475,1117,655
15480,1118,668
15485,1135,670
15490,1128,679
15495,1146,687
15500,1152,696
15505,1163,705
15510,1162,713
15515,1173,721
15520,1173,732
15525,1182,743
15530,1182,754
15535,1185,756
15540,1180,765
15545,1186,776
15550,1188,787
15555,1189,804
15560,1183,804
15565,1188,814
15570,1183,827
15575,1189,830
15580,1187,841
15585,1181,850
15590,1189,857
15595,1181,871
15600,1169,874
15605,1168,884
15610,1166,893
15615,1162,892
15620,1152,899
15625,1150,899
15630,1148,910
15635,1152,916
15640,1143,918
15645,1140,918
15650,1126,921
15655,1134,931
15660,1126,927
15665,1127,930
15670,1119,931
15675,1113,942
15680,1114,935
15685,1120,930
15690,1109,929
15695,1104,925
15700,1109,927
15705,1093,930
15710,1106,927
15715,1095,926
15720,1095,925
15725,1085,921
15730,1082,920
15735,1085,913
15740,1083,912
15745,1083,910
15750,1073,917
15755,1076,907
15760,1070,901
15765,1068,901
15770,1060,893
15775,1052,895
15780,1056,888
15785,1050,890
15790,1046,885
15795,1044,888
15800,1042,885
15805,1028,884
15810,1025,881
15815,1018,876
15820,1015,872
15825,1000,876
15830,995,870
15835,983,872
15840,968,866
15845,965,865
15850,956,866
15855,949,860
15860,938,859
15865,936,856
15870,927,856
15875,916,859
15880,900,852
15885,896,850
15890,899,845
15895,865,845
15900,852,849
15905,861,841
15910,835,845
15915,838,838
15920,824,830
15925,826,830
15930,808,828
15935,807,817
15940,788,812
15945,779,810
15950,776,811
15955,769,798
15960,764,792
15965,761,791
15970,763,783
15975,756,782
15980,751,769
15985,737,758
15990,738,759
15995,750,754
16000,741,745
16004,743,740
16010,750,729
16015,752,722
16020,746,723
16024,765,706
16030,768,707
16035,778,698
16040,787,683
16045,789,680
16050,803,674
16055,805,666
16059,824,665
16065,831,661
16070,840,651
16075,863,647
16079,860,638
16085,877,637
16090,896,639
16094,904,636
16100,918,632
16105,927,630
16110,950,626
16114,963,624
16120,969,624
16125,992,619
16129,1004,623
16135,1025,625
16140,1035,631
16145,1043,633
16149,1056,639
16155,1058,640
16160,1071,642
16165,1088,646
16170,1091,655
16175,1104,658
16180,1121,665
16184,1124,664
16190,1139,675
16195,1145,683
16200,1149,693
16204,1156,702
16210,1162,712
16215,1171,718
16219,1172,725
16225,1187,736
16230,1185,747
16235,1183,757
16239,1178,767
16245,1191,773
16250,1193,787
16254,1188,792
16260,1189,801
16265,1192,816
16270,1191,820
16274,1180,828
16280,1186,846
16285,1176,855
16290,1173,853
16295,1165,864
16300,1158,870
16305,1178,879
16309,1164,884
16315,1168,886
16320,1151,898
16325,1154,901
16329,1164,905
16335,1156,908
16340,1143,918
16344,1147,923
16350,1129,922
16355,1136,925
16360,1125,925
16364,1126,928
16370,1131,933
16375,1109,936
16379,1122,929
16385,1110,929
16390,1102,931
16395,1106,933
16400,1105,928
16405,1108,921
16410,1089,927
16415,1095,926
16420,1096,925
16425,1096,914
16430,1087,917
16435,1078,912
16440,1081,911
16445,1079,911
16450,1079,915
16455,1072,906
16460,1070,906
16465,1079,899
16470,1063,900
16475,1059,897
16480,1060,893
16485,1050,892
16490,1056,885
16495,1044,888
16500,1032,882
16505,1034,884
16510,1031,876
16515,1022,871
16520,1014,872
16525,1013,878
16530,999,869
16535,995,867
16540,988,870
16545,976,868
16550,967,868
16555,962,864
16560,949,863
16565,942,857
16570,935,862
16575,924,858
16580,907,857
16585,900,854
16590,893,851
16595,876,846
16600,869,844
16605,858,844
16610,846,839
16615,842,837
16620,818,832
16625,821,828
16630,817,828
16635,803,826
16640,800,817
16645,785,811
16650,776,812
16655,771,806
16660,772,800
16665,773,793
16670,764,789
16675,744,780
16680,749,778
16685,754,763
16690,744,769
16695,748,755
16700,751,748
16705,753,742
16710,744,731
16715,753,724
16720,757,721
16725,758,709
16730,764,702
16735,773,699
16740,785,688
16745,784,683
16750,798,680
16755,808,671
16760,823,666
16765,829,664
16770,838,654
16775,856,646
16780,865,648
16785,871,640
16790,885,637
16795,899,633
16800,908,633
16805,930,629
16810,941,625
16815,950,621
16820,967,620
16825,983,626
16830,999,626
16835,1014,625
16840,1025,628
16845,1032,629
16850,1039,636
16855,1067,634
16860,1077,640
16865,1086,644
16870,1096,654
16875,1112,652
16880,1123,658
16885,1129,669
16890,1132,679
16895,1138,683
16900,1147,692
16905,1153,697
16910,1158,707
16915,1167,715
16920,1173,726
16925,1175,733
16930,1171,738
16935,1182,754
16940,1185,758
16945,1174,766
16950,1186,778
16955,1184,793
16960,1182,798
16965,1198,809
16970,1181,821
16975,1179,826
16980,1193,833
16985,1172,848
16990,1175,847
16995,1175,857
17000,1165,868
17005,1164,875
17010,1164,879
17015,1164,888
17020,1162,893
17025,1158,902
17030,1151,905
17035,1144,915
17040,1141,916
17045,1149,917
17050,1131,919
17055,1132,928
17060,1130,933
17065,1126,928
17070,1122,930
17075,1128,930
17080,1115,931
17085,1111,931
17090,1101,931
17095,1109,930
17100,1102,933
17105,1092,929
17110,1092,931
17115,1107,926
17120,1092,919
17125,1095,919
17130,1087,927
17135,1082,914
17140,1089,913
17145,1074,907
17150,1074,909
17155,1072,908
17160,1074,911
17165,1072,902
17170,1075,896
17175,1064,897
17180,1059,896
17185,1049,893
17190,1042,891
17195,1044,886
17200,1043,881
17205,1034,881
17210,1031,880
17215,1027,878
17220,1014,874
17225,1012,877
17230,1001,867
17235,990,868
17240,986,867
17245,991,866
17250,962,862
17255,964,858
17260,950,860
17265,949,863
17270,929,858
17275,917,863
17280,912,861
17285,900,851
17290,897,847
17295,876,850
17300,877,843
17305,862,841
17310,849,844
17315,846,834
17320,829,838
17325,832,830
17330,820,826
17335,811,827
17340,793,823
17345,787,818
17350,782,808
17355,778,809
17360,764,798
17365,761,795
17370,755,791
17375,758,785
17380,748,774
17385,743,771
17390,754,764
17395,747,759
17400,748,749
17405,750,741
17410,744,736
17415,755,729
17420,751,722
17425,764,720
17430,758,707
17435,778,702
17440,776,694
17445,785,687
17450,791,679
17455,810,675
17460,815,667
17465,824,664
17470,831,654
17475,838,654
17480,855,650
17485,866,643
17490,884,639
17495,897,637
17500,903,632
17505,926,633
17510,926,633
17515,952,626
17520,960,627
17525,970,628
17530,991,623
17535,997,616
17540,1013,627
17545,1023,624
17550,1053,636
17555,1064,635
17560,1068,637
17565,1086,641
17570,1088,645
17575,1090,652
17580,1105,658
17585,1122,661
17590,1128,672
17595,1134,679
17600,1145,690
17605,1160,690
17610,1160,708
17615,1163,715
17620,1173,716
17625,1176,729
17630,1187,740
17635,1181,754
17640,1183,755
17645,1190,768
17650,1187,776
17655,1184,788
17660,1193,797
17665,1188,809
17670,1173,820
17675,1180,823
17680,1185,829
17685,1176,840
17690,1178,854
17695,1180,857
17700,1169,863
17705,1168,875
17710,1174,880
17715,1167,886
17720,1172,897
17725,1150,895
17730,1154,902
17735,1145,910
17740,1144,911
17745,1142,921
17750,1127,918
17755,1142,923
17760,1126,925
17765,1134,929
17770,1126,930
17775,1117,928
17780,1122,932
17785,1113,926
17790,1116,928
17795,1106,932
17800,1106,927
17805,1100,928
17810,1110,931
17815,1106,925
17820,1090,928
17825,1089,930
17830,1092,914
17835,1089,920
17840,1080,916
17845,1086,913
17850,1069,912
17855,1072,909
17860,1072,908
17865,1089,905
17870,1061,897
17875,1061,897
17880,1062,896
17885,1058,887
17890,1060,892
17895,1051,883
17900,1044,889
17905,1041,886
17910,1030,883
17915,1026,874
17920,1022,877
17925,1019,874
17930,1009,871
17935,1003,869
17940,992,872
17945,986,873
17950,977,869
17955,972,866
17960,954,864
17965,949,858
17970,946,860
17975,916,861
17980,923,856
17985,901,856
17990,895,857
17995,892,850
18000,864,846
18005,875,848
18010,860,844
18015,847,837
18020,839,833
18025,832,837
18030,821,824
18035,804,823
18040,801,818
18045,797,818
18050,788,816
18055,785,801
18060,776,802
18065,764,792
18070,757,787
18075,759,786
18080,753,783
18085,742,773
18090,742,769
18095,746,764
18100,752,751
18105,749,741
18110,749,740
18115,753,738
18120,759,726
18125,759,723
18130,755,712
18135,773,709
18140,771,702
18145,791,687
18150,790,684
18155,806,677
18160,799,669
18165,824,664
18170,828,654
18175,833,653
18180,851,652
18185,868,640
18190,872,642
18195,889,634
18200,906,635
18205,924,631
18210,928,622
18215,941,625
18220,953,619
18225,970,626
18230,980,623
18235,1006,623
18240,1004,625
18245,1023,630
18250,1039,632
18255,1042,634
18260,1063,638
18265,1066,638
18270,1084,647
18275,1094,643
18280,1114,659
18285,1124,669
18290,1119,669
18295,1139,675
18300,1146,685
18305,1152,690
18310,1155,694
18315,1165,709
18320,1172,715
18325,1172,728
18330,1175,737
18335,1185,747
18340,1184,757
18345,1178,764
18350,1193,766
18355,1191,782
18360,1192,794
18365,1195,806
18370,1186,807
18375,1183,821
18380,1187,827
18385,1181,836
18390,1180,843
18395,1174,853
18400,1170,866
18405,1173,871
18410,1165,871
18415,1170,879
18420,1167,889
18425,1159,895
18430,1156,903
18435,1154,907
18440,1157,919
18445,1138,913
18450,1146,909
18455,1135,919
18460,1124,925
18465,1126,930
18470,1128,931
18475,1117,930
18480,1121,937
18485,1119,928
18490,1116,931
18495,1111,929
18500,1107,932
18505,1104,926
18510,1104,930
18515,1093,931
18520,1092,926
18525,1093,919
18530,1093,925
18535,1088,922
18540,1089,912
18545,1084,915
18550,1084,909
18555,1075,912
18560,1070,906
18565,1073,908
18570,1061,902
18575,1062,899
18580,1060,894
18585,1058,896
18590,1054,888
18595,1048,889
18600,1051,886
18605,1040,881
18610,1039,882
18615,1027,881
18620,1025,876
18625,1016,879
18630,1009,872
18635,1000,872
18640,989,865
18645,984,868
18650,983,865
18655,966,860
18660,954,863
18665,954,863
18670,937,861
18675,928,855
18680,922,852
18685,904,854
18690,902,858
18695,887,852
18700,885,850
18705,869,839
18710,858,839
18715,857,834
18720,849,836
18725,836,831
18730,816,832
18735,814,827
18740,806,826
18745,791,821
18750,784,816
18755,778,813
18760,778,801
18765,773,804
18770,765,792
18775,767,789
18780,752,784
18785,751,772
18790,744,767
18795,753,762
18800,753,759
18805,739,748
18810,751,743
18815,744,738
18820,760,732
18825,758,723
18830,770,715
18835,773,707
18840,774,704
18845,781,695
18850,789,687
18855,788,678
18860,809,672
18865,811,668
18870,822,661
18875,833,656
18880,844,648
18885,851,644
18890,869,649
18895,881,632
18900,898,635
18905,910,629
18910,914,634
18915,935,626
18920,943,623
18925,969,620
18930,978,624
18935,998,625
18940,1001,625
18945,1015,629
18950,1029,629
18955,1046,623
18960,1067,636
18965,1073,641
18970,1086,643
18975,1091,646
18980,1101,650
18985,1116,658
18990,1122,671
18995,1129,670
19000,1152,682
19005,1152,689
19010,1158,694
19015,1162,712
19020,1161,716
19025,1170,723
19030,1175,732
19035,1181,738
19040,1186,747
19045,1188,760
19050,1184,768
19055,1193,777
19060,1193,780
19065,1188,802
19070,1185,808
19075,1192,820
19080,1179,822
19085,1195,832
19090,1186,842
19095,1187,853
19100,1174,863
19105,1173,869
19110,1162,872
19115,1171,873
19120,1174,888
19125,1163,895
19130,1159,898
19135,1155,901
19140,1149,910
19145,1150,912
19150,1151,916
19155,1135,920
19160,1136,927
19165,1131,922
19170,1128,923
19175,1123,931
19180,1127,930
19185,1121,931
19190,1117,932
19195,1113,932
19200,1114,933
19205,1111,928
19210,1101,930
19215,1107,929
19220,1093,926
19225,1101,924
19230,1084,916
19235,1093,918
19240,1083,920
19245,1090,914
19250,1079,915
19255,1076,912
19260,1081,906
19265,1072,906
19270,1076,901
19275,1061,900
19280,1059,901
19285,1059,902
19290,1052,890
19295,1059,891
19300,1044,891
19305,1042,888
19310,1047,880
19315,1029,879
19320,1019,878
19325,1015,869
19330,1004,878
19335,1014,869
19340,1002,871
19345,992,868
19350,973,863
19355,973,869
19360,972,862
19365,947,859
19370,956,855
19375,941,857
19380,928,852
19385,906,859
19390,905,852
19395,898,855
19400,879,847
19405,879,848
19410,864,847
19415,858,839
19420,848,836
19425,831,835
19430,823,828
19435,811,827
19440,806,826
19445,806,819
19450,785,809
19455,793,808
19460,777,813
19465,779,804
19470,767,794
19475,758,785
19480,754,784
19485,755,775
19490,748,775
19495,742,770
19500,750,760
19505,742,755
19510,750,742
19515,752,741
19520,752,734
19525,752,725
19530,761,720
19535,763,707
19540,780,702
19545,770,697
19550,784,690
19555,793,684
19560,797,677
19565,804,672
19570,815,670
19575,828,658
19580,838,651
19585,851,651
19590,870,644
19595,880,643
19600,894,635
19605,894,629
19610,918,629
19615,925,632
19620,949,628
19625,961,625
19630,977,624
19635,986,624
19640,1004,626
19645,1019,631
19650,1025,630
19655,1031,635
19660,1046,634
19665,1066,635
19670,1074,646
19675,1078,646
19680,1098,648
19685,1102,657
19690,1111,662
19695,1135,669
19700,1141,679
19705,1132,684
19710,1147,688
19715,1156,704
19720,1164,703
19725,1179,718
19730,1182,732
19735,1180,738
19740,1179,743
19745,1192,760
19750,1187,763
19755,1191,772
19760,1192,782
19765,1195,794
19770,1180,803
19775,1186,816
19780,1185,825
19785,1186,831
19790,1184,845
19795,1188,847
19800,1177,858
19805,1177,858
19810,1171,867
19815,1162,874
19820,1166,886
19825,1163,891
19830,1155,895
19835,1154,896
19840,1149,902
19845,1155,914
19850,1143,916
19855,1135,914
19860,1140,918
19865,1126,925
19870,1122,923
19875,1128,926
19880,1116,929
19885,1119,927
19890,1109,928
19895,1116,934
19900,1106,928
19905,1107,926
19910,1109,928
19915,1091,928
19920,1097,925
19925,1092,925
19930,1095,924
19935,1096,923
19940,1099,919
19945,1087,912
19950,1091,914
19955,1083,915
19960,1079,910
19965,1079,907
19970,1072,902
19975,1061,902
19980,1069,896
19985,1070,899
19990,1055,892
19995,1059,893
20000,1042,888
20005,1044,885
20010,1038,879
20015,1036,883
20020,1026,882
20025,1023,879
20030,1011,878
20035,1005,875
20040,994,869
20045,1002,869
20050,993,863
20055,971,866
20060,958,858
20065,951,861
20070,943,859
20075,933,862
20080,926,856
20085,918,861
20090,917,851
20095,899,851
20100,894,852
20105,884,845
20110,869,847
20115,866,842
20120,851,844
20125,843,835
20130,829,829
20135,809,829
20140,809,826
20145,806,824
20150,790,814
20155,783,810
20160,772,809
20165,780,808
20170,775,801
20175,767,795
20180,761,790
20185,753,785
20190,757,776
20195,752,774
20200,748,762
20205,741,755
20210,750,750
20215,748,744
20220,754,736
20225,755,726
20230,760,713
20235,761,714
20240,769,716
20245,776,697
20250,789,693
20255,787,685
20260,790,683
20265,805,672
20270,819,665
20275,825,659
20280,843,654
20285,846,649
20290,865,646
20295,870,644
20300,879,638
20305,902,630
20310,909,625
20315,922,626
20320,943,627
20325,953,627
20330,971,626
20335,982,619
20340,989,625
20345,1005,625
20350,1019,628
20355,1036,627
20360,1047,628
20365,1059,631
20370,1072,639
20375,1081,644
20380,1099,646
20385,1109,656
20390,1117,664
20395,1126,668
20400,1125,671
20405,1154,681
20410,1149,689
20415,1153,699
20420,1172,707
20425,1165,714
20430,1169,719
20435,1165,735
20440,1173,739
20445,1183,754
20450,1193,766
20455,1180,767
20460,1179,777
20465,1189,789
20470,1179,798
20475,1195,812
20480,1192,812
20485,1186,836
20490,1189,843
20495,1182,848
20500,1181,852
20505,1179,862
20510,1174,869
20515,1161,869
20520,1172,881
20525,1165,884
20530,1157,894
20535,1159,904
20540,1155,907
20545,1151,909
20550,1132,915
20555,1143,920
20560,1134,919
20565,1125,922
20570,1125,923
20575,1130,923
20580,1114,928
20585,1117,924
20590,1115,930
20595,1109,931
20600,1116,928
20605,1103,933
20610,1098,922
20615,1100,927
20620,1094,924
20625,1098,927
20630,1099,923
20635,1089,928
20640,1088,918
20645,1083,917
20650,1084,915
20655,1084,914
20660,1085,908
20665,1083,907
20670,1083,909
20675,1073,902
20680,1072,898
20685,1065,893
20690,1071,895
20695,1060,888
20700,1044,883
20705,1047,886
20710,1052,889
20715,1038,887
20720,1033,877
20725,1022,875
20730,1017,878
20735,1014,880
20740,1001,875
20745,991,871
20750,986,867
20755,974,869
20760,967,864
20765,955,863
20770,958,861
20775,941,857
20780,936,857
20785,926,860
20790,921,853
20795,902,853
20800,900,851
20805,884,851
20810,872,850
20815,876,843
20820,859,838
20825,845,838
20830,841,841
20835,831,834
20840,812,822
20845,807,822
20850,794,819
20855,788,814
20860,784,812
20865,780,809
20870,778,804
20875,763,794
20880,753,786
20885,758,782
20890,757,778
20895,758,772
20900,742,761
20905,748,757
20910,749,757
20915,738,744
20920,743,741
20925,753,726
20930,758,719
20935,764,715
20940,763,709
20945,770,700
20950,770,697
20955,787,691
20960,789,679
20965,796,677
20970,810,670
20975,826,658
20980,834,658
20985,849,653
20990,852,644
20995,866,640
21000,872,643
21005,896,633
21010,905,630
21015,916,632
21020,935,630
21025,949,629
21030,962,624
21035,977,622
21040,984,620
21045,991,623
21050,1015,629
21055,1030,631
21060,1044,622
21065,1061,638
21070,1070,637
21075,1074,641
21080,1085,650
21085,1108,650
21090,1114,653
21095,1128,666
21100,1128,674
21105,1138,675
21110,1143,689
21115,1152,695
21120,1157,700
21125,1162,711
21130,1171,718
21135,1175,730
21140,1172,733
21145,1185,746
21150,1186,758
21155,1188,771
21160,1195,781
21165,1191,783
21170,1194,797
21175,1178,803
21180,1188,815
21185,1187,820
21190,1192,841
21195,1175,845
21200,1176,853
21205,1180,857
21210,1175,869
21215,1170,872
21220,1166,881
21225,1172,883
21230,1163,892
21235,1166,893
21240,1158,905
21245,1148,907
21250,1145,913
21255,1143,918
21260,1147,918
21265,1144,921
21270,1132,919
21275,1123,932
21280,1130,926
21285,1123,931
21290,1107,929
21295,1120,934
21300,1112,930
21305,1114,931
21310,1102,928
21315,1106,931
21320,1111,933
21325,1104,924
21330,1101,919
21335,1091,920
21340,1100,923
21345,1089,914
21350,1083,914
21355,1084,910
21360,1087,908
21365,1080,910
21370,1074,908
21375,1069,900
21380,1071,896
21385,1069,898
21390,1059,896
21395,1048,893
21400,1057,886
21405,1051,888
21410,1038,887
21415,1042,884
21420,1025,879
21425,1025,880
21430,1018,877
21435,1012,877
21440,1011,872
21445,1001,877
21450,995,870
21455,984,870
21460,971,864
21465,973,866
21470,956,863
21475,942,861
21480,937,858
21485,931,858
21490,917,859
21495,905,853
21500,897,847
21505,890,849
21510,870,843
21515,875,845
21520,862,839
21525,845,840
21530,830,837
21535,830,837
21540,818,833
21545,803,829
21550,804,826
21555,791,817
21560,787,812
21565,774,808
21570,773,806
21575,766,796
21580,769,787
21585,750,782
21590,764,777
21595,760,778
21600,754,767
21605,740,758
21610,745,758
21615,752,747
21620,750,745
21625,749,732
21630,751,730
21635,760,721
21640,771,707
21645,763,706
21650,772,701
21655,774,697
21660,796,684
21665,800,680
21670,811,671
21675,818,663
21680,829,663
21685,841,655
21690,856,654
21695,863,647
21700,870,650
21705,888,637
21710,907,631
21715,923,626
21720,931,622
21725,941,629
21730,956,629
21735,968,625
21740,983,627
21745,993,625
21750,1009,629
21755,1017,626
21760,1034,629
21765,1051,633
21770,1066,638
21775,1076,641
21780,1087,642
21785,1095,651
21790,1108,657
21795,1110,663
21800,1117,671
21805,1137,675
21810,1141,679
21815,1151,687
21820,1159,696
21825,1160,706
21830,1169,709
21835,1175,733
21840,1184,733
21845,1178,745
21850,1187,751
21855,1191,767
21860,1192,773
21865,1187,780
21870,1191,789
21875,1188,807
21880,1181,805
21885,1185,818
21890,1194,831
21895,1182,837
21900,1185,844
21905,1178,849
21910,1183,869
21915,1183,865
21920,1162,877
21925,1170,885
21930,1165,892
21935,1166,894
21940,1148,902
21945,1151,904
21950,1156,912
21955,1135,918
21960,1139,913
21965,1140,922
21970,1135,923
21975,1130,927
21980,1124,928
21985,1123,929
21990,1116,933
21995,1116,928
22000,1117,930
22005,1100,932
22010,1102,933
22015,1111,931
22020,1099,924
22025,1100,930
22030,1094,924
22035,1102,925
22040,1089,923
22045,1085,921
22050,1083,919
22055,1087,915
22060,1079,912
22065,1079,908
22070,1082,906
22075,1070,906
22080,1067,906
22085,1059,896
22090,1062,895
22095,1056,893
22100,1060,889
22105,1052,888
22110,1053,892
22115,1040,883
22120,1027,881
22125,1029,880
22130,1022,881
22135,1019,878
22140,1011,870
22145,998,873
22150,990,871
22155,980,868
22160,972,864
22165,981,866
22170,966,863
22175,945,857
22180,945,857
22185,927,859
22190,924,857
22195,917,856
22200,908,856
22205,891,855
22210,880,846
22215,875,844
22220,861,843
22225,858,837
22230,844,833
22235,831,831
22240,820,827
22245,809,823
22250,808,824
22255,803,820
22260,795,816
22265,776,810
22270,775,803
22275,772,798
22280,756,794
22285,759,786
22290,758,784
22295,759,773
22300,746,770
22305,750,759
22310,754,756
22315,744,745
22320,742,739
22325,744,740
22330,757,728
22335,758,721
22340,761,709
22345,771,711
22350,773,694
22355,779,702
22360,785,689
22365,796,681
22370,798,678
22375,818,665
22380,814,663
22385,834,656
22390,841,651
22395,866,649
22400,871,640
22405,884,638
22410,891,629
22415,910,631
22420,926,627
22425,939,625
22430,943,624
22435,964,623
22440,976,627
22445,990,624
22450,1005,626
22455,1019,626
22460,1023,632
22465,1043,628
22470,1061,639
22475,1071,639
22480,1082,641
22485,1098,651
22490,1089,651
22495,1108,658
22500,1124,668
22505,1134,675
22510,1145,686
22515,1139,688
22520,1154,694
22525,1157,704
22530,1169,711
22535,1165,721
22540,1177,733
22545,1169,745
22550,1180,746
22555,1184,753
22560,1178,775
22565,1190,780
22570,1192,787
22575,1189,798
22580,1191,806
22585,1181,821
22590,1187,831
22595,1184,830
22600,1185,838
22605,1183,854
22610,1172,860
22615,1177,868
22620,1161,873
22625,1169,874
22630,1148,888
22635,1167,897
22640,1156,896
22645,1145,909
22650,1160,906
22655,1141,913
22660,1135,921
22665,1137,913
22670,1134,922
22675,1130,927
22680,1125,926
22685,1131,930
22690,1118,931
22695,1115,933
22700,1108,932
22705,1109,928
22710,1111,928
22715,1111,928
22720,1109,928
22725,1094,927
22730,1096,924
22735,1093,926
22740,1096,921
22745,1083,921
22750,1096,921
22755,1087,918
22760,1086,909
22765,1084,910
22770,1077,908
22775,1070,908
22780,1071,902
22785,1075,900
22790,1055,893
22795,1060,895
22800,1057,896
22805,1059,888
22810,1040,884
22815,1046,882
22820,1030,881
22825,1035,874
22830,1026,878
22835,1028,878
22840,1008,874
22845,997,877
22850,993,865
22855,987,871
22860,987,870
22865,976,867
22870,955,871
22875,964,862
22880,942,854
22885,930,857
22890,924,857
22895,922,856
22900,905,853
22905,898,849
22910,886,847
22915,869,852
22920,862,843
22925,851,840
22930,853,839
22935,843,829
22940,823,832
22945,816,826
22950,804,829
22955,806,820
22960,795,818
22965,791,808
22970,784,808
22975,780,810
22980,770,798
22985,769,793
22990,752,785
22995,758,775
23000,753,772
23005,752,766
23010,754,753
23015,753,759
23020,740,748
23025,743,738
23030,753,737
23035,751,723
23040,755,717
23045,766,717
23050,757,708
23055,775,702
23060,786,690
23065,798,680
23070,792,674
23075,808,670
23080,819,662
23085,835,656
23090,836,657
23095,848,645
23100,870,649
23105,884,640
23110,892,635
23115,897,632
23120,924,635
23125,939,632
23130,944,622
23135,963,622
23140,975,622
23145,997,621
23150,1006,625
23155,1009,628
23160,1022,624
23165,1038,625
23170,1045,632
23175,1069,640
23180,1072,643
23185,1083,650
23190,1110,650
23195,1114,653
23200,1121,663
23205,1123,669
23210,1133,676
23215,1142,682
23220,1156,693
23225,1152,703
23230,1155,712
23235,1168,723
23240,1174,725
23245,1178,732
23250,1187,747
23255,1182,758
23260,1183,767
23265,1183,774
23270,1177,779
23275,1188,795
23280,1180,797
23285,1182,810
23290,1182,827
23295,1193,831
23300,1183,840
23305,1182,846
23310,1181,857
23315,1181,858
23320,1169,873
23325,1166,876
23330,1158,884
23335,1158,893
23340,1161,900
23345,1150,896
23350,1147,912
23355,1138,908
23360,1138,916
23365,1133,915
23370,1142,929
23375,1128,924
23380,1139,924
23385,1121,932
23390,1122,929
23395,1106,931
23400,1120,930
23405,1109,931
23410,1113,926
23415,1105,935
23420,1104,932
23425,1100,932
23430,1103,923
23435,1099,919
23440,1090,926
23445,1092,920
23450,1080,922
23455,1088,920
23460,1094,910
23465,1078,907
23470,1078,912
23475,1080,907
23480,1067,909
23485,1074,897
23490,1065,894
23495,1066,893
23500,1066,885
23505,1059,886
23510,1055,890
23515,1046,886
23520,1040,885
23525,1033,879
23530,1031,874
23535,1028,868
23540,1011,878
23545,1011,870
23550,993,875
23555,989,871
23560,985,869
23565,977,869
23570,974,869
23575,950,861
23580,949,865
23585,942,854
23590,921,856
23595,919,854
23600,909,855
23605,906,852
23610,887,847
23615,883,850
23620,866,846
23625,854,843
23630,859,841
23635,831,842
23640,831,835
23645,822,832
23650,808,830
23655,805,822
23660,795,817
23665,780,811
23670,777,808
23675,774,801
23680,769,799
23685,768,787
23690,758,788
23695,750,785
23700,755,779
23705,757,768
23710,750,763
23715,752,760
23720,747,752
23725,742,744
23730,754,736
23735,760,725
23740,755,719
23745,767,715
23750,767,707
23755,776,700
23760,782,692
23765,785,688
23770,791,678
23775,798,668
23780,810,666
23785,837,662
23790,835,653
23795,845,648
23800,861,647
23805,874,644
23810,882,632
23815,894,634
23820,903,630
23825,928,630
23830,939,627
23835,952,628
23840,976,622
23845,979,620
23850,987,628
23855,1011,629
23860,1016,628
23865,1038,632
23870,1046,636
23875,1059,635
23880,1069,635
23885,1087,638
23890,1099,647
23895,1109,659
23900,1119,656
23905,1119,662
23910,1130,674
23915,1136,681
23920,1142,691
23925,1152,697
23930,1160,702
23935,1171,717
23940,1181,730
23945,1169,737
23950,1183,741
23955,1186,753
23960,1190,761
23965,1190,772
23970,1181,779
23975,1185,790
23980,1179,800
23985,1176,808
23990,1181,820
23995,1184,829
24000,1187,832
24005,1188,847
24010,1179,848
24015,1186,857
24020,1166,872
24025,1168,876
24030,1165,879
24035,1164,891
24040,1159,893
24045,1156,898
24050,1150,903
24055,1143,908
24060,1137,915
24065,1141,920
24070,1136,923
24075,1135,922
24080,1126,924
24085,1124,931
24090,1128,932
24095,1125,925
24100,1107,932
24105,1123,937
24110,1111,931
24115,1104,928
24120,1111,931
24125,1094,930
24130,1102,920
24135,1099,920
24140,1093,922
24145,1092,925
24150,1090,923
24155,1085,917
24160,1083,917
24165,1092,914
24170,1079,913
24175,1086,903
24180,1070,907
24185,1079,899
24190,1075,901
24195,1068,895
24200,1064,890
24205,1056,895
24210,1056,889
24215,1038,886
24220,1044,887
24225,1042,881
24230,1026,880
24235,1024,882
24240,1018,878
24245,1010,870
24250,1007,875
24255,1005,870
24260,989,871
24265,983,866
24270,970,861
24275,962,859
24280,960,858
24285,938,862
24290,921,859
24295,921,856
24300,911,853
24305,907,857
24310,903,853
24315,883,846
24320,868,849
24325,859,840
24330,853,837
24335,841,832
24340,842,832
24345,829,829
24350,814,830
24355,808,824
24360,780,814
24365,785,813
24370,784,810
24375,777,803
24380,775,802
24385,761,795
24390,765,793
24395,754,784
24400,746,776
24405,751,772
24410,751,764
24415,752,759
24420,750,749
24425,752,744
24430,746,736
24435,755,733
24440,758,719
24445,763,719
24450,767,707
24455,775,704
24460,767,695
24465,784,688
24470,798,677
24475,804,674
24480,808,667
24485,815,665
24490,839,656
24495,845,657
24500,854,647
24505,866,646
24510,882,635
24515,891,637
24520,906,633
24525,913,633
24530,930,629
24535,944,623
24540,963,630
24545,975,621
24550,985,623
24555,1019,621
24560,1012,626
24565,1032,629
24570,1040,630
24575,1048,637
24580,1066,641
24585,1073,645
24590,1082,649
24595,1105,650
24600,1124,660
24605,1117,663
24610,1142,674
24615,1138,674
24620,1141,681
24625,1142,691
24630,1155,703
24635,1173,710
24640,1170,718
24645,1177,728
24650,1177,744
24655,1187,747
24660,1184,759
24665,1183,769
24670,1191,773
24675,1192,790
24680,1196,799
24685,1187,808
24690,1178,820
24695,1174,822
24700,1179,837
24705,1176,839
24710,1167,850
24715,1179,857
24720,1178,865
24725,1174,872
24730,1177,877
24735,1161,887
24740,1155,893
24745,1152,902
24750,1153,901
24755,1153,915
24760,1138,910
24765,1146,911
24770,1138,920
24775,1139,923
24780,1136,929
24785,1131,923
24790,1127,925
24795,1128,935
24800,1115,929
24805,1115,933
24810,1117,930
24815,1108,923
24820,1102,930
24825,1107,926
24830,1105,926
24835,1105,923
24840,1096,925
24845,1095,923
24850,1094,923
24855,1078,911
24860,1093,918
24865,1085,913
24870,1083,909
24875,1074,906
24880,1081,905
24885,1072,904
24890,1065,898
24895,1063,899
24900,1050,896
24905,1059,891
24910,1048,885
24915,1040,881
24920,1050,887
24925,1034,884
24930,1040,880
24935,1023,884
24940,1012,878
24945,1022,869
24950,1007,875
24955,1004,866
24960,990,867
24965,983,868
24970,970,865
24975,959,865
24980,958,866
24985,943,861
24990,932,855
24995,931,858
25000,911,855
25005,908,847
25010,892,847
25015,883,851
25020,877,843
25025,867,836
25030,863,846
25035,844,839
25040,836,840
25045,831,834
25050,819,822
25055,809,825
25060,801,822
25065,792,814
25070,788,812
25075,785,811
25080,780,804
25085,762,795
25090,771,790
25095,761,782
25100,758,782
25105,757,773
25110,748,769
25115,732,759
25120,745,751
25125,740,749
25130,748,738
25135,752,733
25140,757,731
25145,756,717
25150,760,712
25155,767,708
25160,774,700
25165,783,693
25170,782,684
25175,803,678
25180,810,670
25185,823,666
25190,824,662
25195,830,658
25200,856,653
25205,865,645
25210,877,642
25215,888,635
25220,902,634
25225,904,632
25230,935,627
25235,952,629
25240,956,625
25245,970,628
25250,994,624
25255,1000,627
25260,1014,622
25265,1022,627
25270,1038,632
25275,1054,631
25280,1051,640
25285,1078,640
25290,1079,646
25295,1102,650
25300,1110,656
25305,1114,665
25310,1135,668
25315,1137,672
25320,1144,683
25325,1140,690
25330,1161,700
25335,1167,704
25340,1170,718
25345,1173,723
25350,1177,734
25355,1175,743
25360,1187,753
25365,1185,762
25370,1182,776
25375,1196,783
25380,1196,791
25385,1185,799
25390,1184,811
25395,1197,820
25400,1185,828
25405,1186,838
25410,1186,857
25415,1190,858
25420,1180,860
25425,1171,868
25430,1170,886
25435,1166,884
25440,1158,886
25445,1160,890
25450,1149,903
25455,1149,908
25460,1142,904
25465,1151,916
25470,1150,921
25475,1144,922
25480,1132,927
25485,1137,929
25490,1126,928
25495,1121,927
25500,1117,927
25505,1114,931
25510,1116,929
25515,1106,930
25520,1114,932
25525,1096,932
25530,1098,924
25535,1096,922
25540,1101,923
25545,1089,921
25550,1092,921
25555,1094,913
25560,1078,917
25565,1072,914
25570,1076,907
25575,1076,907
25580,1071,908
25585,1077,907
25590,1071,898
25595,1063,901
25600,1064,889
25605,1063,890
25610,1047,888
25615,1049,891
25620,1045,885
25625,1039,883
25630,1042,878
25635,1035,881
25640,1030,874
25645,1018,877
25650,1008,873
25655,994,874
25660,991,871
25665,984,865
25670,987,863
25675,970,868
25680,964,865
25685,953,864
25690,948,859
25695,931,861
25700,923,856
25705,920,855
25710,896,852
25715,897,853
25720,880,847
25725,870,845
25730,855,837
25735,856,840
25740,837,838
25745,828,837
25750,820,832
25755,815,821
25760,811,824
25765,800,822
25770,790,816
25775,782,810
25780,775,805
25785,765,798
25790,760,794
25795,750,788
25800,743,782
25805,754,775
25810,750,770
25815,742,767
25820,743,760
25825,754,748
25830,749,741
25835,745,734
25840,757,726
25845,754,728
25850,756,718
25855,767,711
25860,771,698
25865,779,689
25870,791,693
25875,793,674
25880,800,674
25885,812,668
25890,819,656
25895,844,659
25900,850,650
25905,858,643
25910,871,642
25915,878,639
25920,901,635
25925,905,627
25930,932,632
25935,944,630
25940,958,624
25945,966,626
25950,984,621
25955,992,622
25960,994,622
25965,1018,630
25970,1027,627
25975,1043,635
25980,1054,631
25985,1058,638
25990,1079,641
25995,1100,651
26000,1109,656
26005,1111,663
26010,1120,666
26015,1136,668
26020,1138,681
26025,1148,689
26030,1160,701
26035,1158,703
26040,1163,714
26045,1163,724
26050,1175,728
26055,1189,742
26060,1190,746
26065,1175,760
26070,1187,769
26075,1190,781
26080,1185,783
26085,1187,795
26090,1187,804
26095,1185,816
26100,1185,825
26105,1177,835
26110,1178,841
26115,1180,849
26120,1179,857
26125,1178,872
26130,1170,871
26135,1173,878
26140,1172,889
26145,1163,889
26150,1158,901
26155,1161,904
26160,1154,908
26165,1142,911
26170,1137,917
26175,1140,924
26180,1142,925
26185,1132,922
26190,1130,924
26195,1126,931
26200,1120,931
26205,1112,936
26210,1111,933
26215,1121,931
26220,1106,928
26225,1101,929
26230,1100,928
26235,1096,925
26240,1100,927
26245,1092,924
26250,1090,920
26255,1094,923
26260,1091,918
26265,1082,916
26270,1089,920
26275,1081,907
26280,1072,898
26285,1074,901
26290,1065,903
26295,1061,900
26300,1070,902
26305,1058,894
26310,1066,893
26315,1046,892
26320,1046,884
26325,1049,887
26330,1041,887
26335,1028,886
26340,1029,877
26345,1017,880
26350,1021,877
26355,1005,875
26360,1002,870
26365,982,873
26370,977,866
26375,976,866
26380,960,864
26385,955,864
26390,950,863
26395,941,859
26400,923,857
26405,909,864
26410,909,851
26415,901,853
26420,891,851
26425,878,847
26430,857,850
26435,850,842
26440,851,838
26445,833,837
26450,830,831
26455,819,833
26460,801,826
26465,799,821
26470,786,817
26475,782,814
26480,778,809
26485,774,800
26490,766,801
26495,762,792
26500,751,786
26505,754,784
26510,753,779
26515,743,767
26520,740,760
26525,754,757
26530,750,747
26535,752,736
26540,748,729
26545,768,728
26550,758,722
26555,759,713
26560,762,708
26565,774,698
26570,787,692
26575,799,684
26580,797,674
26585,812,666
26590,821,661
26595,830,665
26600,842,655
26605,846,649
26610,869,644
26615,882,639
26620,888,641
26625,906,632
26630,918,633
26635,926,632
26640,955,623
26645,959,626
26650,973,620
26655,987,632
26660,992,623
26665,1009,626
26670,1028,628
26675,1041,628
26680,1054,633
26685,1062,635
26690,1079,635
26695,1081,649
26700,1104,652
26705,1110,653
26710,1114,662
26715,1116,667
26720,1131,677
26725,1148,684
26730,1147,697
26735,1155,697
26740,1161,712
26745,1170,720
26750,1177,726
26755,1180,740
26760,1179,749
26765,1195,755
26770,1173,766
26775,1185,773
26780,1197,786
26785,1187,793
26790,1185,802
26795,1193,812
26800,1191,818
26805,1184,834
26810,1190,838
26815,1184,849
26820,1175,855
26825,1170,868
26830,1156,868
26835,1163,874
26840,1168,887
26845,1164,889
26850,1158,901
26855,1153,903
26860,1152,904
26865,1145,911
26870,1144,913
26875,1138,925
26880,1130,915
26885,1138,924
26890,1132,928
26895,1123,925
26900,1116,934
26905,1118,933
26910,1114,930
26915,1103,932
26920,1101,932
26925,1098,926
26930,1104,933
26935,1109,933
26940,1106,921
26945,1101,922
26950,1105,923
26955,1098,917
26960,1089,921
26965,1095,921
26970,1094,915
26975,1074,909
26980,1078,911
26985,1083,911
26990,1074,905
26995,1074,901
27000,1066,900
27005,1061,896
27010,1056,891
27015,1061,889
27020,1052,889
27025,1038,886
27030,1037,888
27035,1046,880
27040,1025,879
27045,1017,878
27050,1022,872
27055,1002,879
27060,1003,872
27065,988,872
27070,987,863
27075,973,864
27080,963,862
27085,953,865
27090,950,857
27095,940,863
27100,939,853
27105,921,852
27110,903,853
27115,893,853
27120,890,850
27125,877,847
27130,872,843
27135,860,836
27140,854,843
27145,839,837
27150,834,831
27155,821,831
27160,820,822
27165,804,822
27170,794,818
27175,780,812
27180,787,810
27185,773,800
27190,775,798
27195,760,790
27200,763,783
27205,753,775
27210,751,777
27215,753,769
27220,744,763
27225,751,759
27230,743,747
27235,755,742
27240,738,737
27245,756,723
27250,756,721
27255,767,713
27260,770,706
27265,776,699
27270,776,696
27275,794,684
27280,798,679
27285,807,665
27290,820,671
27295,833,663
27300,838,655
27305,853,649
27310,857,647
27315,864,639
27320,883,641
27325,894,635
27330,916,635
27335,934,630
27340,948,625
27345,960,626
27350,961,622
27355,981,632
27360,1000,631
27365,1009,625
27370,1024,625
27375,1034,630
27380,1041,630
27385,1059,631
27390,1073,637
27395,1087,646
27400,1090,652
27405,1099,656
27410,1112,661
27415,1115,669
27420,1126,675
27425,1140,682
27430,1141,690
27435,1158,694
27440,1164,706
27445,1166,716
27450,1162,722
27455,1182,728
27460,1182,746
27465,1175,754
27470,1186,761
27475,1184,770
27480,1189,777
27485,1184,784
27490,1189,802
27495,1186,806
27500,1184,821
27505,1194,831
27510,1183,838
27515,1178,842
27520,1174,853
27525,1174,863
27530,1175,868
27535,1164,879
27540,1176,883
27545,1162,889
27550,1159,896
27555,1154,903
27560,1146,907
27565,1147,912
27570,1144,917
27575,1140,918
27580,1140,922
27585,1132,921
27590,1140,926
27595,1131,933
27600,1120,928
27605,1116,930
27610,1115,932
27615,1110,930
27620,1110,925
27625,1105,933
27630,1106,925
27635,1097,924
27640,1103,929
27645,1100,926
27650,1097,918
27655,1091,921
27660,1090,918
27665,1081,921
27670,1086,915
27675,1086,913
27680,1086,912
27685,1067,912
27690,1076,904
27695,1066,897
27700,1075,898
27705,1061,895
27710,1065,893
27715,1061,890
27720,1052,892
27725,1053,888
27730,1042,883
27735,1037,886
27740,1027,877
27745,1025,875
27750,1013,885
27755,1009,873
27760,999,867
27765,988,867
27770,988,867
27775,973,864
27780,969,868
27785,966,869
27790,960,861
27795,944,866
27800,934,853
27805,926,856
27810,918,850
27815,905,855
27820,897,862
27825,878,851
27830,875,843
27835,860,840
27840,852,845
27845,844,843
27850,834,834
27855,827,837
27860,819,831
27865,804,823
27870,810,820
27875,789,818
27880,776,809
27885,773,805
27890,773,802
27895,762,798
27900,768,793
27905,757,782
27910,749,786
27915,746,777
27920,738,768
27925,748,759
27930,745,748
27935,748,744
27940,748,740
27945,753,735
27950,756,723
27955,759,725
27960,764,708
27965,774,700
27970,776,690
27975,784,689
27980,798,681
27985,799,677
27990,806,671
27995,818,664
28000,829,659
28005,843,656
28010,868,644
28015,867,646
28020,871,643
28025,896,634
28030,906,635
28035,924,631
28040,928,628
28045,938,626
28050,966,630
28055,981,625
28060,988,622
28065,999,620
28070,1012,623
28075,1033,631
28080,1045,630
28085,1048,632
28090,1073,636
28095,1075,642
28100,1084,643
28105,1098,659
28110,1114,658
28115,1114,666
28120,1128,673
28125,1141,678
28130,1152,684
28135,1148,696
28140,1168,703
28145,1168,712
28150,1166,724
28155,1170,727
28160,1179,731
28165,1177,744
28170,1181,756
28175,1183,774
28180,1188,774
28185,1193,786
28190,1190,799
28195,1194,802
28200,1188,811
28205,1184,824
28210,1188,833
28215,1174,844
28220,1187,850
28225,1166,859
28230,1165,864
28235,1176,875
28240,1164,874
28245,1163,886
28250,1168,885
28255,1154,897
28260,1150,903
28265,1151,909
28270,1153,916
28275,1142,915
28280,1137,920
28285,1131,922
28290,1132,927
28295,1127,926
28300,1126,925
28305,1112,925
28310,1110,931
28315,1119,929
28320,1111,928
28325,1114,930
28330,1104,930
28335,1095,933
28340,1102,930
28345,1099,927
28350,1103,920
28355,1085,920
28360,1086,923
28365,1087,913
28370,1078,919
28375,1079,914
28380,1075,909
28385,1086,911
28390,1079,905
28395,1073,898
28400,1077,904
28405,1075,899
28410,1057,894
28415,1054,895
28420,1059,890
28425,1043,888
28430,1044,885
28435,1041,886
28440,1032,879
28445,1034,871
28450,1030,874
28455,1016,875
28460,1012,870
28465,999,875
28470,992,873
28475,983,867
28480,980,865
28485,968,861
28490,948,869
28495,938,860
28500,936,859
28505,934,853
28510,923,861
28515,913,854
28520,904,849
28525,889,846
28530,879,846
28535,868,846
28540,858,840
28545,840,842
28550,842,836
28555,828,828
28560,816,824
28565,807,822
28570,800,820
28575,795,816
28580,793,809
28585,775,806
28590,769,799
28595,763,800
28600,766,793
28605,761,785
28610,761,779
28615,754,768
28620,749,764
28625,745,759
28630,752,758
28635,752,747
28640,747,744
28645,756,728
28650,748,724
28655,762,718
28660,758,711
28665,761,705
28670,777,695
28675,779,691
28680,788,681
28685,789,677
28690,810,672
28695,817,668
28700,824,656
28705,837,652
28710,861,647
28715,869,644
28720,866,635
28725,890,633
28730,909,634
28735,921,631
28740,928,628
28745,939,624
28750,951,623
28755,969,621
28760,974,625
28765,993,623
28770,1002,623
28775,1020,633
28780,1035,633
28785,1051,638
28790,1060,636
28795,1073,640
28800,1086,646
28805,1102,654
28810,1108,649
28815,1113,663
28820,1127,669
28825,1136,676
28830,1139,680
28835,1154,690
28840,1145,701
28845,1164,709
28850,1160,716
28855,1171,725
28860,1181,736
28865,1175,740
28870,1187,758
28875,1188,767
28880,1186,774
28885,1190,778
28890,1190,795
28895,1189,805
28900,1184,816
28905,1185,822
28910,1181,829
28915,1179,830
28920,1183,840
28925,1180,853
28930,1185,862
28935,1175,873
28940,1173,876
28945,1166,883
28950,1169,891
28955,1167,894
28960,1153,901
28965,1153,905
28970,1143,908
28975,1142,910
28980,1139,920
28985,1132,923
28990,1133,925
28995,1127,925
29000,1119,935
29005,1124,932
29010,1122,931
29015,1121,932
29020,1111,936
29025,1109,931
29030,1111,930
29035,1105,931
29040,1106,929
29045,1099,931
29050,1100,933
29055,1088,925
29060,1102,922
29065,1089,919
29070,1079,916
29075,1088,916
29080,1076,913
29085,1078,911
29090,1080,914
29095,1073,900
29100,1068,903
29105,1072,898
29110,1067,896
29115,1057,895
29120,1053,894
29125,1054,890
29130,1046,886
29135,1040,886
29140,1033,881
29145,1032,877
29150,1021,878
29155,1011,877
29160,1010,877
29165,995,868
29170,995,874
29175,989,869
29180,981,861
29185,975,865
29190,956,860
29195,948,863
29200,944,857
29205,938,859
29210,921,857
29215,909,852
29220,902,852
29225,899,853
29230,876,845
29235,869,847
29240,862,841
29245,848,837
29250,841,841
29255,836,837
29260,822,832
29265,826,832
29270,808,827
29275,795,821
29280,783,812
29285,778,812
29290,776,807
29295,771,800
29300,772,798
29305,769,786
29310,754,779
29315,758,775
29320,747,771
29325,765,761
29330,752,760
29335,754,750
29340,752,746
29345,741,739
29350,751,730
29355,763,720
29360,764,713
29365,779,709
29370,764,701
29375,774,690
29380,790,695
29385,798,682
29390,807,675
29395,815,664
29400,834,663
29405,833,658
29410,852,649
29415,855,647
29420,875,639
29425,885,636
29430,898,639
29435,903,632
29440,922,621
29445,928,631
29450,958,630
29455,961,628
29460,976,622
29465,995,622
29470,1005,624
29475,1020,624
29480,1032,626
29485,1037,631
29490,1056,633
29495,1071,638
29500,1087,641
29505,1094,651
29510,1097,651
29515,1112,662
29520,1124,667
29525,1126,673
29530,1136,681
29535,1142,683
29540,1163,694
29545,1153,700
29550,1176,715
29555,1174,717
29560,1180,732
29565,1183,739
29570,1177,746
29575,1185,758
29580,1196,770
29585,1182,781
29590,1178,792
29595,1194,803
29600,1185,809
29605,1185,819
29610,1187,826
29615,1188,838
29620,1187,841
29625,1180,855
29630,1175,866
29635,1170,868
29640,1174,871
29645,1167,879
29650,1171,887
29655,1166,895
29660,1154,897
29665,1149,902
29670,1141,907
29675,1149,911
29680,1144,918
29685,1140,924
29690,1129,920
29695,1125,925
29700,1135,926
29705,1128,927
29710,1122,930
29715,1112,929
29720,1111,931
29725,1108,930
29730,1112,923
29735,1103,930
29740,1110,924
29745,1094,928
29750,1094,926
29755,1094,925
29760,1090,922
29765,1092,913
29770,1086,921
29775,1095,917
29780,1080,913
29785,1080,909
29790,1091,910
29795,1081,907
29800,1071,901
29805,1066,896
29810,1063,895
29815,1064,892
29820,1065,889
29825,1051,892
29830,1043,891
29835,1053,885
29840,1038,880
29845,1028,882
29850,1025,876
29855,1023,881
29860,1011,868
29865,1012,875
29870,996,880
29875,990,868
29880,983,864
29885,976,863
29890,967,868
29895,952,866
29900,939,863
29905,931,862
29910,930,863
29915,913,852
29920,900,855
29925,881,850
29930,885,845
29935,877,844
29940,875,847
29945,856,841
29950,853,834
29955,828,831
29960,824,830
29965,811,826
29970,811,826
29975,796,823
29980,802,815
29985,788,812
29990,782,803
29995,768,804
