timestamp_ms,ir_finger,ir_toe
0,1042,704
5,1066,706
10,1067,698
15,1076,701
20,1096,692
25,1104,693
30,1113,693
35,1122,692
40,1135,695
45,1150,691
50,1151,694
55,1155,694
60,1165,700
65,1168,698
70,1168,702
75,1176,702
80,1176,706
85,1183,709
90,1175,708
95,1191,717
100,1189,722
105,1188,722
110,1186,725
115,1190,734
120,1185,735
125,1192,749
130,1180,750
135,1167,755
140,1178,762
145,1175,767
150,1169,771
155,1173,780
160,1169,791
165,1176,790
170,1162,796
175,1154,805
180,1153,809
185,1139,812
190,1145,823
195,1133,829
200,1135,836
205,1119,838
210,1133,842
215,1127,845
220,1124,853
225,1115,860
230,1109,858
235,1111,857
240,1106,861
245,1112,869
250,1094,868
255,1102,875
260,1091,874
265,1089,880
270,1091,875
275,1083,876
280,1094,885
285,1086,880
290,1080,882
295,1074,878
300,1082,882
305,1075,879
310,1068,878
315,1067,876
320,1068,874
325,1056,878
330,1052,869
335,1046,875
340,1036,873
345,1037,871
350,1029,865
355,1023,868
360,1012,862
365,1002,864
370,1006,861
375,986,861
380,989,860
385,971,862
390,961,851
395,958,852
400,947,849
405,940,850
410,933,847
415,917,848
420,906,846
425,897,844
430,882,843
435,876,836
440,867,840
445,850,839
450,841,838
455,831,837
460,825,838
465,807,835
470,797,832
475,802,838
480,787,834
485,770,829
490,771,834
495,767,829
500,772,831
505,744,825
510,745,824
515,751,824
520,753,822
525,749,821
530,742,817
535,747,817
540,750,810
545,757,809
550,756,803
555,757,801
560,756,795
565,775,795
570,782,785
575,780,784
580,794,784
585,803,781
590,811,778
595,832,772
600,837,766
605,853,763
610,862,754
615,878,757
620,890,746
625,895,743
630,906,735
635,928,734
640,944,731
645,955,723
650,976,727
655,976,717
660,997,716
665,1013,708
670,1026,712
675,1039,704
680,1055,699
685,1058,701
690,1076,696
695,1091,700
700,1099,693
705,1112,695
710,1121,696
715,1130,695
720,1143,691
725,1147,692
730,1157,692
735,1163,698
740,1165,695
745,1175,702
750,1168,700
755,1181,702
760,1181,706
765,1188,709
770,1190,711
775,1188,718
780,1177,722
785,1189,726
790,1186,735
795,1184,733
800,1175,740
805,1181,749
810,1180,756
815,1181,761
820,1175,767
825,1165,773
830,1167,777
835,1165,781
840,1163,789
845,1165,790
850,1147,804
855,1154,802
860,1143,816
865,1148,821
870,1144,827
875,1137,829
880,1126,834
885,1123,840
890,1132,845
895,1115,850
900,1113,852
905,1114,857
910,1114,858
915,1097,862
920,1116,868
925,1105,874
930,1100,871
935,1092,877
940,1093,875
945,1087,880
950,1085,880
955,1090,876
960,1088,877
965,1072,883
970,1078,879
975,1075,880
980,1069,882
985,1068,876
990,1067,880
995,1068,879
1000,1064,874
1004,1056,876
1010,1039,871
1014,1035,873
1020,1029,867
1025,1031,874
1030,1028,869
1035,1015,863
1040,1006,867
1045,1005,858
1050,999,860
1055,986,859
1060,965,858
1065,971,858
1070,959,854
1075,959,852
1080,942,849
1085,931,851
1090,922,849
1095,911,851
1100,898,843
1105,887,854
1110,874,843
1115,863,842
1120,856,837
1125,848,835
1130,834,837
1135,832,831
1140,808,834
1145,806,835
1150,805,836
1155,792,837
1160,787,834
1165,776,834
1170,770,826
1175,766,826
1180,764,832
1185,757,821
1190,753,822
1195,753,822
1200,752,819
1205,750,816
1210,746,812
1215,739,812
1220,753,811
1225,762,807
1230,761,802
1235,759,796
1240,770,795
1245,776,788
1250,780,785
1255,784,784
1260,808,780
1265,808,774
1270,815,771
1275,834,763
1280,845,762
1285,861,759
1290,881,755
1295,878,749
1300,889,748
1305,905,744
1310,913,737
1315,936,733
1320,955,726
1325,961,724
1330,980,713
1335,983,717
1340,1005,713
1345,1025,710
1350,1042,702
1355,1046,706
1360,1058,698
1365,1074,695
1370,1101,690
1375,1099,700
1380,1103,693
1385,1114,691
1390,1131,695
1395,1132,696
1400,1139,691
1405,1150,688
1410,1151,695
1415,1164,693
1420,1167,695
1425,1173,699
1430,1178,698
1435,1181,706
1440,1182,712
1445,1186,716
1450,1192,718
1455,1182,723
1460,1184,723
1465,1188,734
1470,1185,729
1475,1181,741
1480,1185,746
1485,1186,756
1490,1186,759
1495,1170,767
1500,1167,767
1505,1170,778
1510,1164,785
1515,1168,783
1520,1164,801
1525,1148,801
1530,1151,806
1535,1146,816
1540,1136,819
1545,1133,826
1550,1130,831
1555,1124,834
1560,1136,839
1565,1127,845
1570,1127,843
1575,1109,852
1580,1117,854
1585,1102,861
1590,1106,864
1595,1104,872
1600,1099,867
1605,1092,869
1610,1101,873
1615,1096,873
1620,1087,874
1625,1091,875
1630,1086,881
1635,1092,880
1640,1068,879
1645,1076,883
1650,1077,883
1655,1074,880
1660,1072,884
1665,1066,875
1670,1067,876
1675,1056,877
1680,1054,879
1685,1045,872
1690,1047,872
1695,1033,872
1700,1022,868
1705,1033,867
1710,1018,866
1715,1001,863
1720,1007,858
1725,1002,859
1730,999,863
1735,972,858
1740,961,858
1745,958,856
1750,952,850
1755,945,853
1760,934,851
1765,920,848
1770,908,845
1775,902,841
1780,888,847
1785,879,841
1790,860,845
1795,860,845
1800,848,843
1805,846,836
1810,833,835
1815,822,840
1820,818,835
1825,805,831
1830,793,832
1835,786,836
1840,780,829
1845,775,831
1850,763,828
1855,760,825
1860,760,830
1865,754,826
1870,748,819
1875,751,821
1880,749,812
1885,745,813
1890,755,807
1895,746,810
1900,752,809
1905,761,804
1910,764,801
1915,770,798
1920,775,788
1925,779,790
1930,786,781
1935,796,780
1940,814,776
1945,812,773
1950,827,773
1955,838,767
1960,859,759
1965,867,755
1970,873,751
1975,886,750
1980,901,745
1985,920,738
1990,932,734
1995,959,727
2000,954,726
2005,977,719
2009,993,718
2015,1002,715
2020,1018,710
2025,1034,708
2029,1050,702
2035,1064,697
2040,1074,702
2045,1079,699
2050,1091,694
2055,1107,697
2060,1117,696
2065,1131,694
2070,1135,693
2075,1144,699
2080,1150,692
2085,1163,698
2090,1162,701
2095,1177,694
2100,1168,698
2105,1181,702
2110,1181,712
2115,1181,704
2120,1178,708
2125,1179,717
2130,1186,721
2135,1192,719
2140,1185,728
2145,1198,740
2150,1188,742
2155,1194,744
2160,1182,750
2165,1189,758
2170,1175,763
2175,1168,776
2180,1174,776
2185,1166,778
2190,1167,784
2195,1158,792
2200,1159,795
2205,1149,809
2210,1138,809
2215,1139,816
2220,1143,823
2225,1140,829
2230,1128,831
2235,1132,837
2240,1120,838
2245,1125,847
2250,1118,856
2255,1120,862
2260,1113,854
2265,1113,868
2270,1100,865
2275,1100,867
2280,1101,870
2285,1106,872
2290,1093,877
2295,1095,873
2300,1092,880
2305,1094,872
2310,1087,876
2315,1085,879
2320,1078,876
2325,1084,879
2330,1072,885
2335,1063,877
2340,1074,877
2345,1066,874
2350,1058,874
2355,1049,877
2360,1052,873
2365,1044,869
2370,1033,869
2375,1025,869
2380,1029,863
2385,1019,869
2390,1011,860
2395,1006,860
2400,998,868
2405,992,861
2410,975,859
2415,974,853
2420,956,858
2425,952,855
2430,949,849
2435,941,848
2440,925,852
2445,925,848
2450,901,840
2455,894,845
2460,880,846
2465,877,840
2470,864,845
2475,848,840
2480,826,838
2485,827,838
2490,826,836
2495,814,835
2500,802,835
2505,794,834
2510,788,832
2515,780,830
2520,781,830
2525,766,830
2530,757,827
2535,758,826
2540,745,819
2545,751,823
2550,749,823
2555,744,817
2560,756,814
2565,747,818
2570,751,807
2575,752,809
2580,763,804
2585,768,803
2590,761,799
2595,764,794
2600,787,791
2605,786,785
2610,798,782
2615,808,777
2620,808,773
2625,828,773
2630,844,766
2635,856,765
2640,863,761
2645,871,754
2650,893,747
2655,905,746
2660,914,736
2665,931,737
2670,953,729
2675,962,725
2680,976,721
2685,993,719
2690,999,714
2695,1017,703
2700,1027,709
2705,1042,704
2710,1059,700
2715,1071,702
2720,1064,701
2725,1091,692
2730,1100,693
2735,1117,693
2740,1117,696
2745,1133,692
2750,1135,697
2755,1146,696
2760,1140,691
2765,1162,692
2770,1172,697
2775,1175,699
2780,1176,707
2785,1177,699
2790,1185,704
2795,1187,712
2800,1178,714
2805,1189,718
2810,1189,724
2815,1181,735
2820,1196,730
2825,1182,741
2830,1185,742
2835,1174,749
2840,1182,755
2845,1176,765
2850,1170,772
2855,1163,773
2860,1178,782
2865,1162,785
2870,1160,789
2875,1155,795
2880,1158,802
2885,1141,810
2890,1147,816
2895,1145,820
2900,1136,829
2905,1127,830
2910,1124,837
2915,1126,839
2920,1129,845
2925,1120,845
2930,1120,857
2935,1106,856
2940,1112,860
2945,1118,872
2950,1105,863
2955,1098,874
2960,1107,872
2965,1084,876
2970,1105,881
2975,1091,875
2980,1086,885
2985,1085,878
2990,1078,880
2995,1075,878
3000,1078,883
3005,1080,883
3010,1057,876
3015,1071,882
3020,1066,876
3025,1060,872
3030,1060,872
3035,1051,874
3040,1050,875
3045,1041,868
3050,1044,874
3055,1029,868
3060,1026,867
3065,1008,869
3070,1010,858
3075,997,861
3080,996,860
3085,985,859
3090,978,856
3095,961,858
3100,962,853
3105,951,853
3110,937,850
3115,939,851
3120,924,847
3125,906,844
3130,887,845
3135,876,844
3140,873,847
3145,873,843
3150,853,843
3155,837,839
3160,841,838
3165,814,839
3170,816,834
3175,811,837
3180,801,835
3185,782,835
3190,787,833
3195,771,832
3200,766,830
3205,768,827
3210,758,825
3215,751,819
3220,742,825
3225,746,820
3230,752,812
3235,749,812
3240,758,813
3245,747,812
3250,747,806
3255,759,807
3260,759,798
3265,752,802
3270,775,796
3275,770,794
3280,787,784
3285,794,779
3290,798,777
3295,805,776
3300,823,768
3305,843,769
3310,847,761
3315,856,759
3320,865,754
3325,892,748
3330,906,742
3335,910,739
3340,924,732
3345,940,725
3350,956,730
3355,966,722
3360,982,719
3365,983,717
3370,1021,706
3375,1034,710
3380,1037,702
3385,1054,708
3390,1077,703
3395,1078,698
3400,1090,697
3405,1100,698
3410,1109,694
3415,1124,690
3420,1127,692
3425,1140,693
3430,1159,693
3435,1152,693
3440,1154,692
3445,1166,700
3450,1165,702
3455,1176,703
3460,1185,702
3465,1191,713
3470,1192,711
3475,1188,716
3480,1193,716
3485,1195,720
3490,1193,726
3495,1202,732
3500,1180,741
3505,1196,742
3510,1178,750
3515,1180,750
3520,1179,766
3525,1176,766
3530,1169,772
3535,1173,772
3540,1171,781
3545,1160,792
3550,1158,794
3555,1152,808
3560,1152,804
3565,1149,818
3570,1146,822
3575,1143,822
3580,1129,832
3585,1138,837
3590,1131,835
3595,1121,849
3600,1111,854
3605,1114,849
3610,1117,857
3615,1114,863
3620,1103,863
3625,1108,868
3630,1110,865
3635,1103,873
3640,1091,874
3645,1087,879
3650,1089,874
3655,1087,877
3660,1083,878
3665,1081,878
3670,1083,880
3675,1070,881
3680,1072,878
3685,1073,881
3690,1070,876
3695,1068,879
3700,1057,876
3705,1056,879
3710,1045,868
3715,1040,877
3720,1044,867
3725,1029,867
3730,1037,866
3735,1029,867
3740,1019,862
3745,1001,861
3750,1003,859
3755,985,857
3760,987,864
3765,981,858
3770,965,857
3775,966,857
3780,948,857
3785,934,853
3790,934,856
3795,922,853
3800,911,848
3805,898,843
3810,881,853
3815,874,843
3820,868,838
3825,863,845
3830,850,841
3835,833,840
3840,828,843
3845,813,835
3850,811,833
3855,807,834
3860,784,834
3865,775,829
3870,778,831
3875,763,831
3880,758,828
3885,764,824
3890,754,824
3895,754,823
3900,757,816
3905,747,825
3910,747,816
3915,749,813
3920,740,810
3925,751,812
3930,761,808
3935,756,804
3940,760,799
3945,760,791
3950,782,793
3955,787,787
3960,790,784
3965,797,782
3970,807,781
3975,816,776
3980,828,768
3985,842,766
3990,854,762
3995,870,757
4000,873,749
4005,889,742
4010,908,747
4014,931,740
4019,934,735
4025,953,723
4030,963,724
4035,978,721
4040,992,717
4045,1014,712
4050,1020,709
4054,1034,707
4059,1042,700
4065,1054,697
4070,1073,698
4075,1084,699
4080,1096,692
4085,1102,692
4090,1119,695
4094,1136,689
4100,1126,692
4105,1148,695
4110,1144,692
4115,1153,694
4120,1160,700
4125,1164,696
4130,1182,701
4135,1176,699
4140,1186,706
4145,1182,713
4150,1187,707
4155,1182,718
4160,1190,720
4165,1200,726
4170,1196,730
4175,1175,741
4180,1190,738
4185,1184,744
4190,1182,753
4195,1170,758
4200,1166,765
4205,1169,769
4210,1163,774
4215,1167,785
4220,1169,789
4225,1156,790
4230,1150,803
4235,1151,802
4240,1146,811
4245,1136,820
4250,1135,819
4255,1129,830
4260,1138,830
4265,1131,837
4270,1124,842
4275,1125,843
4280,1116,856
4285,1114,855
4290,1109,856
4295,1110,865
4300,1107,865
4305,1104,873
4310,1097,873
4315,1100,876
4320,1093,872
4325,1088,874
4330,1079,880
4335,1094,881
4340,1089,876
4345,1090,880
4350,1071,882
4355,1077,879
4360,1073,879
4365,1071,880
4370,1065,874
4375,1065,879
4380,1061,879
4385,1052,877
4390,1055,872
4395,1041,878
4400,1036,873
4405,1032,867
4410,1029,871
4415,1014,862
4420,1010,869
4425,1006,863
4430,994,860
4435,982,861
4440,974,855
4445,974,852
4450,956,855
4455,947,846
4460,940,850
4465,931,846
4470,919,843
4475,913,844
4480,902,841
4485,888,847
4490,884,839
4495,873,844
4500,860,836
4505,846,840
4510,837,841
4515,828,840
4520,817,833
4525,812,830
4530,801,838
4535,799,833
4540,793,831
4545,775,829
4550,775,828
4555,756,828
4560,757,828
4565,754,830
4570,760,819
4575,744,818
4580,751,820
4585,746,819
4590,752,817
4595,749,818
4600,749,812
4605,752,807
4610,757,809
4615,761,801
4620,762,795
4625,775,791
4630,776,788
4635,790,789
4640,797,781
4645,803,777
4650,817,773
4655,819,767
4660,838,761
4665,857,754
4670,868,755
4675,884,750
4680,889,743
4685,912,739
4690,917,742
4695,934,734
4700,941,733
4705,968,727
4710,965,720
4715,995,711
4720,1005,719
4725,1022,705
4730,1033,708
4735,1043,708
4740,1063,708
4745,1069,694
4750,1091,697
4755,1088,696
4760,1108,698
4765,1111,696
4770,1129,696
4775,1138,685
4780,1133,694
4785,1153,689
4790,1161,695
4795,1170,693
4800,1167,701
4805,1177,702
4810,1174,704
4815,1176,706
4820,1186,710
4825,1183,709
4830,1177,715
4835,1183,721
4840,1185,722
4845,1197,733
4850,1186,735
4855,1190,740
4860,1189,751
4865,1177,749
4870,1176,760
4875,1175,764
4880,1178,769
4885,1177,774
4890,1165,778
4895,1156,786
4900,1156,792
4905,1147,801
4910,1158,805
4915,1145,817
4920,1150,814
4925,1143,819
4930,1136,827
4935,1129,830
4940,1125,838
4945,1131,846
4950,1122,841
4955,1120,849
4960,1113,858
4965,1117,853
4970,1102,861
4975,1101,860
4980,1101,866
4985,1100,871
4990,1093,873
4995,1091,877
5000,1091,875
5005,1096,879
5010,1090,881
5015,1083,879
5020,1080,881
5025,1077,876
5030,1084,882
5035,1069,877
5040,1075,880
5045,1067,871
5050,1071,874
5055,1054,874
5060,1065,874
5065,1042,876
5070,1048,875
5075,1043,869
5080,1038,872
5085,1030,868
5090,1029,866
5095,1016,864
5100,1006,865
5105,1004,862
5110,997,863
5115,981,854
5120,976,858
5125,966,852
5130,954,851
5135,948,854
5140,925,851
5145,922,849
5150,916,849
5155,912,846
5160,891,844
5165,881,846
5170,874,842
5175,859,839
5180,856,841
5185,835,843
5190,829,841
5195,821,839
5200,822,837
5205,794,832
5210,794,836
5215,790,838
5220,787,833
5225,773,832
5230,764,826
5235,761,827
5240,758,824
5245,758,817
5250,747,823
5255,752,817
5260,748,813
5265,750,815
5270,753,817
5275,758,812
5280,753,808
5285,753,803
5290,761,798
5295,760,795
5300,772,795
5305,787,789
5310,778,792
5315,794,781
5320,803,777
5325,819,772
5330,829,764
5335,831,765
5340,852,763
5345,858,763
5350,885,753
5355,886,745
5360,898,749
5365,907,744
5370,923,737
5375,948,729
5380,958,727
5385,978,716
5390,984,717
5395,1004,713
5400,1011,715
5405,1032,705
5410,1041,706
5415,1056,705
5420,1068,699
5425,1084,698
5430,1093,701
5435,1098,694
5440,1106,693
5445,1124,695
5450,1132,692
5455,1144,689
5460,1145,690
5465,1160,689
5470,1160,700
5475,1168,699
5480,1174,700
5485,1178,705
5490,1181,703
5495,1182,708
5500,1190,713
5505,1188,715
5510,1188,717
5515,1188,721
5520,1180,728
5525,1193,736
5530,1191,737
5535,1178,750
5540,1177,751
5545,1179,755
5550,1178,764
5555,1176,771
5560,1176,770
5565,1169,779
5570,1170,782
5575,1161,792
5580,1160,796
5585,1153,808
5590,1151,813
5595,1140,816
5600,1134,820
5605,1136,828
5610,1133,827
5615,1128,837
5620,1120,836
5625,1113,847
5630,1113,849
5635,1110,858
5640,1116,857
5645,1113,863
5650,1106,870
5655,1106,865
5660,1101,865
5665,1098,874
5670,1102,873
5675,1088,878
5680,1091,877
5685,1097,882
5690,1094,874
5695,1077,877
5700,1078,882
5705,1076,879
5710,1070,874
5715,1072,883
5720,1078,882
5725,1066,880
5730,1060,880
5735,1050,879
5740,1049,872
5745,1046,873
5750,1042,871
5755,1034,870
5760,1034,868
5765,1018,867
5770,1024,863
5775,1000,863
5780,996,865
5785,997,862
5790,983,853
5795,974,856
5800,972,848
5805,961,856
5810,943,854
5815,936,847
5820,935,851
5825,916,847
5830,909,849
5835,892,846
5840,879,840
5845,876,840
5850,861,850
5855,858,839
5860,846,839
5865,826,839
5870,821,837
5875,818,834
5880,794,834
5885,799,837
5890,780,834
5895,785,825
5900,776,825
5905,767,835
5910,763,825
5915,761,827
5920,753,822
5925,754,822
5930,748,819
5935,746,817
5940,751,816
5945,751,807
5950,749,813
5955,754,807
5960,756,800
5965,762,798
5970,761,796
5975,769,791
5980,771,787
5985,783,786
5990,797,780
5995,796,775
6000,810,770
6005,825,766
6010,829,764
6015,840,758
6020,853,759
6025,868,756
6030,871,748
6035,899,743
6040,922,743
6045,925,735
6050,943,729
6055,946,727
6060,964,717
6065,991,720
6070,994,719
6075,1007,714
6080,1026,709
6085,1036,708
6090,1045,702
6095,1058,702
6100,1076,698
6105,1086,696
6110,1102,696
6115,1110,692
6120,1122,694
6125,1129,690
6130,1142,690
6135,1139,695
6140,1163,693
6145,1164,695
6150,1165,695
6155,1163,700
6160,1171,698
6165,1180,706
6170,1192,707
6175,1189,710
6180,1186,716
6185,1187,717
6190,1189,723
6195,1188,725
6200,1188,733
6205,1186,735
6210,1191,746
6215,1179,742
6220,1177,757
6225,1181,757
6230,1171,770
6235,1168,772
6240,1162,779
6245,1168,787
6250,1161,784
6255,1154,799
6260,1140,804
6265,1154,807
6270,1149,816
6275,1140,821
6280,1136,819
6285,1134,831
6290,1133,838
6295,1125,838
6300,1118,839
6305,1121,850
6310,1121,849
6315,1111,851
6320,1108,862
6325,1104,866
6330,1097,859
6335,1104,868
6340,1105,872
6345,1101,873
6350,1095,871
6355,1083,877
6360,1086,878
6365,1080,878
6370,1083,882
6375,1088,879
6380,1075,881
6385,1079,882
6390,1068,883
6395,1068,873
6400,1068,874
6405,1061,880
6410,1070,876
6415,1047,877
6420,1045,873
6425,1046,871
6430,1037,870
6435,1020,868
6440,1017,870
6445,1015,866
6450,1005,865
6455,1002,860
6460,994,862
6465,988,856
6470,971,863
6475,972,855
6480,960,850
6485,946,851
6490,944,852
6495,935,851
6500,919,853
6505,898,847
6510,904,844
6515,890,842
6520,877,840
6525,867,845
6530,862,838
6535,851,840
6540,836,841
6545,826,840
6550,810,836
6555,808,837
6560,799,838
6565,786,833
6570,789,834
6575,778,832
6580,771,834
6585,766,830
6590,763,831
6595,749,828
6600,762,820
6605,754,824
6610,749,821
6615,754,817
6620,742,815
6625,755,818
6630,745,809
6635,757,802
6640,755,805
6645,764,798
6650,771,800
6655,782,791
6660,782,787
6665,796,783
6670,801,776
6675,810,775
6680,821,769
6685,826,769
6690,838,762
6695,852,758
6700,881,756
6705,879,750
6710,897,743
6715,915,738
6720,927,741
6725,943,732
6730,946,731
6735,969,725
6740,977,721
6745,992,719
6750,1009,709
6755,1029,708
6760,1042,708
6765,1054,700
6770,1060,701
6775,1073,696
6780,1081,696
6785,1098,698
6790,1112,691
6795,1118,691
6800,1124,699
6805,1135,694
6810,1147,690
6815,1148,692
6820,1171,696
6825,1156,698
6830,1178,700
6835,1171,696
6840,1184,702
6845,1189,708
6850,1184,711
6855,1182,710
6860,1186,723
6865,1189,721
6870,1183,728
6875,1181,730
6880,1181,738
6885,1175,748
6890,1174,747
6895,1175,750
6900,1179,756
6905,1170,762
6910,1170,770
6915,1176,782
6920,1166,786
6925,1163,789
6930,1153,799
6935,1158,800
6940,1142,810
6945,1139,811
6950,1140,812
6955,1131,830
6960,1143,829
6965,1131,828
6970,1129,839
6975,1122,847
6980,1123,850
6985,1112,851
6990,1115,848
6995,1105,856
7000,1108,868
7005,1110,870
7010,1099,865
7015,1108,876
7020,1095,875
7025,1090,873
7030,1094,876
7035,1087,884
7040,1090,882
7045,1073,877
7050,1089,884
7055,1080,881
7060,1082,882
7065,1076,879
7070,1083,882
7075,1068,875
7080,1062,881
7085,1055,882
7090,1058,877
7095,1048,874
7100,1045,875
7105,1030,870
7110,1037,867
7115,1032,865
7120,1028,864
7125,1008,865
7130,997,866
7135,996,863
7140,988,859
7145,974,860
7150,983,852
7155,961,850
7160,946,851
7165,935,850
7170,931,848
7175,925,850
7180,917,850
7185,898,849
7190,892,843
7195,879,842
7200,871,841
7205,858,838
7210,840,846
7215,841,840
7220,831,838
7225,825,837
7230,812,837
7235,794,835
7240,788,833
7245,780,832
7250,779,834
7255,776,826
7260,768,833
7265,761,825
7270,765,830
7275,749,823
7280,749,818
7285,751,819
7290,746,818
7295,746,815
7300,738,812
7305,738,808
7310,756,811
7315,769,797
7320,759,805
7325,784,797
7330,776,791
7335,783,790
7340,786,788
7345,806,777
7350,799,777
7355,816,772
7360,836,775
7365,846,768
7370,858,757
7375,854,756
7380,871,755
7385,890,746
7390,899,745
7395,923,738
7400,931,735
7405,955,728
7410,952,722
7415,970,727
7420,991,725
7425,1003,716
7430,1022,718
7435,1039,708
7440,1040,700
7445,1057,701
7450,1064,698
7455,1085,699
7460,1094,688
7465,1102,694
7470,1109,693
7475,1119,692
7480,1122,693
7485,1136,693
7490,1156,687
7495,1156,694
7500,1164,697
7505,1171,700
7510,1180,702
7515,1169,698
7520,1179,707
7525,1172,709
7530,1187,718
7535,1189,716
7540,1189,719
7545,1197,719
7550,1180,734
7555,1188,731
7560,1187,739
7565,1178,741
7570,1183,748
7575,1183,754
7580,1180,754
7585,1173,775
7590,1178,774
7595,1168,778
7600,1160,785
7605,1158,792
7610,1155,798
7615,1142,802
7620,1147,811
7625,1151,815
7630,1148,821
7635,1130,828
7640,1133,830
7645,1129,831
7650,1116,850
7655,1128,851
7660,1123,850
7665,1101,855
7670,1112,856
7675,1108,862
7680,1115,858
7685,1105,868
7690,1097,869
7695,1098,876
7700,1098,878
7705,1087,870
7710,1093,876
7715,1092,880
7720,1089,872
7725,1083,878
7730,1066,876
7735,1082,879
7740,1070,877
7745,1074,876
7750,1067,879
7755,1060,880
7760,1056,874
7765,1064,872
7770,1052,876
7775,1041,873
7780,1042,871
7785,1040,866
7790,1030,868
7795,1019,868
7800,1015,864
7805,1013,862
7810,1003,864
7815,986,859
7820,977,853
7825,967,859
7830,959,856
7835,962,848
7840,952,855
7845,935,847
7850,923,844
7855,919,847
7860,900,847
7865,892,842
7870,881,842
7875,874,840
7880,861,843
7885,842,834
7890,843,838
7895,835,839
7900,810,832
7905,811,836
7910,808,835
7915,788,830
7920,780,832
7925,777,828
7930,775,831
7935,775,824
7940,760,826
7945,752,832
7950,754,824
7955,749,826
7960,739,815
7965,750,820
7970,743,820
7975,753,814
7980,755,811
7985,751,808
7990,755,806
7995,762,803
8000,753,797
8005,768,794
8010,775,788
8015,789,786
8020,799,780
8025,799,779
8029,822,772
8035,832,766
8039,835,767
8045,855,758
8050,851,755
8055,876,755
8060,892,750
8064,893,741
8070,906,729
8074,925,729
8080,948,730
8085,955,726
8090,972,721
8095,990,712
8100,999,715
8105,1011,716
8109,1023,710
8115,1040,707
8119,1055,700
8125,1060,697
8130,1080,698
8135,1096,692
8140,1111,697
8145,1109,692
8150,1124,694
8154,1126,687
8160,1141,691
8164,1157,689
8170,1158,691
8175,1168,692
8180,1169,699
8185,1166,701
8189,1172,700
8195,1178,706
8200,1189,709
8205,1189,710
8210,1179,708
8215,1187,725
8220,1182,720
8225,1185,732
8230,1190,731
8235,1192,737
8240,1188,746
8245,1181,747
8250,1174,756
8255,1185,761
8260,1182,764
8265,1172,773
8270,1167,778
8275,1166,786
8280,1150,788
8285,1153,798
8290,1156,802
8295,1143,810
8300,1145,818
8305,1140,820
8310,1132,833
8315,1128,834
8320,1125,838
8325,1122,846
8330,1124,846
8335,1121,846
8340,1114,855
8345,1113,858
8350,1117,859
8355,1103,864
8360,1101,866
8365,1099,867
8370,1094,867
8375,1094,872
8380,1100,874
8385,1098,874
8390,1092,876
8395,1085,882
8400,1075,878
8405,1088,877
8410,1072,872
8415,1075,882
8420,1077,879
8425,1058,879
8430,1058,878
8435,1064,871
8440,1053,877
8445,1057,869
8450,1044,871
8455,1034,869
8460,1040,873
8465,1024,865
8470,1024,867
8475,1017,871
8480,1007,871
8485,997,859
8490,995,857
8495,969,859
8500,976,861
8505,961,855
8510,960,852
8515,948,848
8520,944,848
8525,925,849
8530,913,845
8535,906,843
8540,898,841
8545,885,843
8550,872,842
8555,869,843
8560,865,839
8565,846,844
8570,827,836
8575,829,840
8580,811,842
8585,809,835
8590,797,832
8595,782,832
8600,781,829
8605,778,827
8610,761,826
8615,764,830
8620,759,827
8625,742,819
8630,746,825
8635,750,824
8640,742,816
8645,739,816
8650,743,811
8655,743,809
8660,758,810
8665,755,804
8670,754,807
8675,766,802
8680,771,800
8685,777,792
8690,784,789
8695,784,785
8700,796,781
8705,815,773
8710,823,771
8715,836,771
8720,852,763
8725,865,758
8730,874,756
8735,888,751
8740,893,746
8745,915,742
8750,919,740
8755,935,727
8760,948,731
8765,971,726
8770,989,718
8775,991,711
8780,1012,713
8785,1026,704
8790,1035,703
8795,1055,703
8800,1057,702
8805,1081,695
8810,1084,693
8815,1099,693
8820,1113,695
8825,1121,692
8830,1136,692
8835,1133,694
8840,1136,693
8845,1150,690
8850,1158,703
8855,1167,695
8860,1167,699
8865,1173,693
8870,1173,700
8875,1182,701
8880,1178,713
8885,1189,716
8890,1177,720
8895,1185,720
8900,1190,728
8905,1185,732
8910,1199,736
8915,1187,746
8920,1184,752
8925,1187,756
8930,1181,763
8935,1176,764
8940,1176,768
8945,1165,778
8950,1157,786
8955,1169,789
8960,1154,797
8965,1155,802
8970,1150,807
8975,1141,814
8980,1137,821
8985,1134,826
8990,1134,830
8995,1132,835
9000,1136,839
9005,1123,842
9010,1117,852
9015,1116,854
9020,1110,859
9025,1118,859
9030,1101,866
9035,1105,870
9040,1109,873
9045,1107,870
9050,1092,867
9055,1090,871
9060,1102,874
9065,1093,876
9070,1081,884
9075,1081,881
9080,1084,878
9085,1073,881
9090,1077,876
9095,1062,883
9100,1078,880
9105,1062,878
9110,1049,879
9115,1057,876
9120,1052,874
9125,1048,874
9130,1046,871
9135,1044,871
9140,1032,863
9145,1026,867
9150,1011,863
9155,1010,866
9160,1008,861
9165,994,857
9170,977,859
9175,974,859
9180,969,857
9185,960,852
9190,952,850
9195,948,852
9200,924,852
9205,921,849
9210,912,844
9215,903,847
9220,887,847
9225,871,836
9230,865,843
9235,858,842
9240,848,840
9245,828,835
9250,821,839
9255,808,839
9260,801,836
9265,794,832
9270,786,836
9275,783,835
9280,782,830
9285,767,832
9290,767,824
9295,755,823
9300,757,819
9305,747,820
9310,751,826
9315,751,817
9320,744,820
9325,747,812
9330,747,812
9335,746,805
9340,758,805
9345,762,802
9350,751,797
9355,761,795
9360,773,793
9365,780,789
9370,791,787
9375,802,783
9380,801,778
9385,818,771
9390,830,766
9395,837,763
9400,857,763
9405,859,756
9410,874,749
9415,895,744
9420,904,746
9425,931,736
9430,940,736
9435,950,726
9440,968,719
9445,981,714
9450,997,717
9455,1008,711
9460,1019,706
9465,1032,702
9470,1051,707
9475,1060,699
9480,1075,700
9485,1088,697
9490,1094,691
9495,1108,696
9500,1112,695
9505,1125,690
9510,1140,697
9515,1138,693
9520,1157,700
9525,1164,697
9530,1168,697
9535,1168,698
9540,1169,703
9545,1181,703
9550,1178,705
9555,1182,710
9560,1190,713
9565,1185,718
9570,1188,727
9575,1203,724
9580,1177,736
9585,1185,736
9590,1186,744
9595,1184,746
9600,1179,747
9605,1182,759
9610,1179,761
9615,1175,771
9620,1175,778
9625,1169,777
9630,1166,787
9635,1160,792
9640,1151,799
9645,1155,810
9650,1148,812
9655,1142,820
9660,1133,825
9665,1136,829
9670,1127,834
9675,1123,841
9680,1125,841
9685,1119,846
9690,1115,853
9695,1112,857
9700,1107,859
9705,1109,864
9710,1109,863
9715,1109,864
9720,1093,868
9725,1104,872
9730,1092,877
9735,1081,877
9740,1093,873
9745,1092,878
9750,1074,876
9755,1077,876
9760,1081,878
9765,1074,877
9770,1074,880
9775,1078,878
9780,1074,881
9785,1055,877
9790,1060,874
9795,1055,874
9800,1042,875
9805,1049,878
9810,1035,871
9815,1034,871
9820,1021,866
9825,1015,865
9830,1002,867
9835,1009,860
9840,996,861
9845,984,859
9850,979,860
9855,967,855
9860,969,848
9865,943,848
9870,942,854
9875,940,848
9880,923,848
9885,919,844
9890,896,842
9895,880,846
9900,885,838
9905,867,839
9910,861,842
9915,843,841
9920,835,835
9925,825,840
9930,818,836
9935,809,838
9940,801,835
9945,780,830
9950,785,830
9955,777,831
9960,779,831
9965,756,827
9970,759,828
9975,759,827
9980,757,825
9985,746,816
9990,750,820
9995,742,822
10000,748,818
10005,747,807
10010,753,806
10015,750,806
10020,758,801
10025,754,799
10030,769,799
10035,757,796
10040,777,783
10045,780,783
10050,786,778
10055,807,776
10060,820,774
10065,829,760
10070,828,761
10075,855,758
10080,859,759
10085,873,755
10090,897,745
10095,903,745
10100,915,745
10105,931,734
10110,949,728
10115,958,728
10120,977,718
10125,988,717
10130,1005,712
10135,1016,711
10140,1027,708
10145,1045,702
10150,1050,704
10155,1063,697
10160,1090,694
10165,1094,698
10170,1112,694
10175,1110,694
10180,1124,691
10185,1135,691
10190,1142,697
10195,1149,688
10200,1158,701
10205,1171,694
10210,1166,700
10215,1180,700
10220,1173,696
10225,1184,707
10230,1181,708
10235,1185,715
10240,1187,716
10245,1189,719
10250,1184,726
10255,1187,727
10260,1183,730
10265,1183,743
10270,1183,746
10275,1181,750
10280,1184,756
10285,1170,765
10290,1171,768
10295,1171,778
10300,1163,777
10305,1165,780
10310,1152,789
10315,1152,798
10320,1148,807
10325,1148,806
10330,1142,821
10335,1146,820
10340,1132,832
10345,1131,834
10350,1129,833
10355,1117,846
10360,1115,847
10365,1118,854
10370,1123,857
10375,1118,858
10380,1109,860
10385,1109,867
10390,1107,868
10395,1105,872
10400,1098,875
10405,1101,870
10410,1102,876
10415,1081,875
10420,1087,876
10425,1074,881
10430,1080,877
10435,1084,877
10440,1082,883
10445,1070,877
10450,1079,877
10455,1071,879
10460,1073,874
10465,1056,879
10470,1049,877
10475,1055,881
10480,1045,879
10485,1036,872
10490,1035,868
10495,1030,871
10500,1027,870
10505,1012,864
10510,1005,866
10515,1005,863
10520,992,863
10525,978,857
10530,972,859
10535,973,850
10540,951,852
10545,944,849
10550,937,848
10555,924,847
10560,914,848
10565,905,847
10570,890,848
10575,887,840
10580,868,841
10585,860,837
10590,848,835
10595,840,838
10600,830,843
10605,829,837
10610,818,832
10615,805,835
10620,792,837
10625,789,830
10630,776,831
10635,774,825
10640,770,830
10645,759,823
10650,752,823
10655,748,829
10660,751,820
10665,748,822
10670,759,816
10675,737,812
10680,752,814
10685,749,809
10690,749,807
10695,748,809
10700,759,800
10705,762,792
10710,764,794
10715,770,791
10720,778,782
10725,801,784
10730,807,778
10735,819,774
10740,822,765
10745,834,761
10750,848,758
10755,859,754
10760,875,749
10765,879,750
10770,896,748
10775,920,736
10780,921,735
10785,950,734
10790,961,726
10795,971,726
10800,977,721
10805,1004,719
10810,1011,712
10815,1036,702
10820,1034,705
10825,1049,696
10830,1069,699
10835,1076,697
10840,1097,698
10845,1096,692
10850,1101,690
10855,1127,697
10860,1130,690
10865,1143,691
10870,1153,696
10875,1153,695
10880,1162,697
10885,1165,702
10890,1174,700
10895,1180,699
10900,1177,704
10905,1187,710
10910,1185,710
10915,1182,716
10920,1186,716
10925,1187,731
10930,1198,730
10935,1193,735
10940,1186,740
10945,1185,744
10950,1189,749
10955,1177,754
10960,1175,759
10965,1177,771
10970,1169,772
10975,1171,780
10980,1165,788
10985,1159,790
10990,1155,803
10995,1144,803
11000,1155,810
11005,1144,818
11010,1140,819
11015,1140,831
11020,1135,829
11025,1138,838
11030,1120,835
11035,1121,846
11040,1118,848
11045,1111,857
11050,1110,861
11055,1112,864
11060,1107,864
11065,1100,869
11070,1093,872
11075,1102,871
11080,1101,876
11085,1092,879
11090,1089,878
11095,1097,882
11100,1088,886
11105,1080,880
11110,1089,882
11115,1071,879
11120,1084,881
11125,1073,884
11130,1066,874
11135,1065,875
11140,1069,872
11145,1047,873
11150,1047,877
11155,1043,879
11160,1044,871
11165,1042,871
11170,1032,869
11175,1016,866
11180,1019,867
11185,1007,867
11190,999,867
11195,990,861
11200,981,861
11205,969,859
11210,973,852
11215,957,854
11220,949,856
11225,935,848
11230,933,848
11235,913,850
11240,906,848
11245,887,846
11250,887,843
11255,872,844
11260,871,844
11265,851,844
11270,848,845
11275,836,838
11280,828,836
11285,815,834
11290,796,834
11295,804,830
11300,800,835
11305,781,826
11310,777,834
11315,770,829
11320,763,825
11325,756,827
11330,758,821
11335,759,823
11340,755,826
11345,746,814
11350,747,816
11355,746,811
11360,752,810
11365,746,810
11370,748,802
11375,754,802
11380,761,798
11385,764,791
11390,780,791
11395,785,780
11400,800,790
11405,801,779
11410,812,778
11415,819,772
11420,834,767
11425,849,762
11430,863,759
11435,866,752
11440,888,745
11445,910,743
11450,910,737
11455,915,735
11460,947,729
11465,958,728
11470,967,725
11475,978,717
11480,999,715
11485,1013,710
11490,1025,710
11495,1043,705
11500,1048,702
11505,1066,700
11510,1078,695
11515,1090,696
11520,1095,693
11525,1111,692
11530,1123,694
11535,1127,694
11540,1141,692
11545,1147,698
11550,1143,690
11555,1157,687
11560,1162,695
11565,1175,696
11570,1179,700
11575,1173,704
11580,1188,707
11585,1178,708
11590,1177,709
11595,1187,721
11600,1179,723
11605,1183,726
11610,1190,734
11615,1189,743
11620,1177,749
11625,1180,740
11630,1180,751
11635,1182,757
11640,1167,766
11645,1176,771
11650,1167,770
11655,1176,791
11660,1163,793
11665,1159,796
11670,1145,797
11675,1156,806
11680,1154,821
11685,1148,820
11690,1140,823
11695,1133,829
11700,1126,836
11705,1125,840
11710,1129,844
11715,1122,850
11720,1125,852
11725,1109,854
11730,1104,863
11735,1104,865
11740,1108,867
11745,1101,867
11750,1104,871
11755,1102,876
11760,1090,872
11765,1094,880
11770,1098,883
11775,1092,877
11780,1084,880
11785,1083,877
11790,1075,877
11795,1075,880
11800,1075,883
11805,1071,878
11810,1069,878
11815,1059,878
11820,1060,869
11825,1059,877
11830,1048,870
11835,1046,873
11840,1035,872
11845,1030,869
11850,1015,868
11855,1016,863
11860,1022,864
11865,1003,861
11870,998,859
11875,986,861
11880,978,856
11885,970,857
11890,957,856
11895,948,853
11900,941,850
11905,926,857
11910,909,841
11915,906,848
11920,904,846
11925,889,845
11930,860,843
11935,868,842
11940,860,843
11945,846,840
11950,844,844
11955,828,832
11960,822,838
11965,813,840
11970,802,836
11975,784,833
11980,773,836
11985,778,833
11990,776,824
11995,759,831
12000,764,825
12005,744,821
12010,750,827
12015,757,816
12020,743,816
12025,750,816
12030,748,809
12035,752,815
12040,748,812
12045,753,806
12050,753,807
12055,767,800
12060,772,797
12065,773,788
12070,783,795
12075,782,781
12080,796,782
12085,806,779
12090,817,776
12095,824,766
12100,850,764
12105,853,756
12110,867,748
12115,884,748
12120,900,747
12125,899,740
12130,919,733
12135,931,730
12140,949,728
12145,970,723
12150,980,716
12155,993,712
12160,1011,714
12165,1031,707
12170,1040,705
12175,1046,706
12180,1056,700
12185,1081,698
12190,1086,701
12195,1094,696
12200,1102,692
12205,1118,696
12210,1129,695
12215,1140,686
12220,1138,691
12225,1155,698
12230,1157,697
12235,1167,695
12240,1168,703
12245,1162,695
12250,1175,701
12255,1182,704
12260,1190,712
12265,1179,719
12270,1179,716
12275,1189,719
12280,1186,725
12285,1190,732
12290,1193,740
12295,1190,741
12300,1193,744
12305,1176,754
12310,1191,759
12315,1178,761
12320,1181,772
12325,1172,776
12330,1166,780
12335,1162,795
12340,1162,792
12345,1163,798
12350,1155,800
12355,1148,811
12360,1147,818
12365,1142,821
12370,1137,830
12375,1128,832
12380,1124,834
12385,1127,844
12390,1122,845
12395,1115,852
12400,1114,858
12405,1105,861
12410,1113,865
12415,1105,868
12420,1106,868
12425,1102,871
12430,1103,875
12435,1091,873
12440,1094,876
12445,1098,879
12450,1088,877
12455,1093,881
12460,1080,874
12465,1076,878
12470,1071,882
12475,1073,882
12480,1064,882
12485,1069,880
12490,1062,876
12495,1057,876
12500,1060,879
12505,1047,878
12510,1043,875
12515,1044,868
12520,1034,871
12525,1017,863
12530,1024,858
12535,1005,863
12540,1013,861
12545,997,858
12550,989,861
12555,982,856
12560,974,856
12565,959,849
12570,947,853
12575,941,849
12580,932,853
12585,936,843
12590,909,849
12595,905,853
12600,892,848
12605,878,842
12610,865,845
12615,864,841
12620,845,841
12625,841,839
12630,828,839
12635,824,835
12640,814,835
12645,803,838
12650,797,834
12655,786,827
12660,781,830
12665,768,831
12670,764,833
12675,765,824
12680,758,824
12685,748,820
12690,744,820
12695,738,817
12700,755,820
12705,745,813
12710,754,810
12715,757,810
12720,747,808
12725,752,804
12730,771,793
12735,764,798
12740,772,794
12745,779,787
12750,795,782
12755,803,773
12760,810,774
12765,812,773
12770,834,769
12775,831,767
12780,844,756
12785,853,750
12790,876,750
12795,890,750
12800,900,743
12805,920,733
12810,928,734
12815,947,736
12820,967,721
12825,983,722
12830,993,719
12835,997,712
12840,1014,712
12845,1031,708
12850,1047,702
12855,1052,706
12860,1061,696
12865,1077,697
12870,1099,692
12875,1098,696
12880,1110,694
12885,1122,689
12890,1132,692
12895,1147,698
12900,1145,690
12905,1154,688
12910,1166,696
12915,1167,697
12920,1181,706
12925,1174,701
12930,1173,701
12935,1187,707
12940,1186,708
12945,1185,718
12950,1193,721
12955,1179,722
12960,1189,727
12965,1190,732
12970,1184,737
12975,1183,739
12980,1181,750
12985,1179,766
12990,1176,767
12995,1178,769
13000,1173,778
13005,1172,781
13010,1162,787
13015,1152,795
13020,1155,798
13025,1159,799
13030,1155,810
13035,1141,817
13040,1131,821
13045,1137,827
13050,1127,838
13055,1130,835
13060,1119,838
13065,1111,846
13070,1112,850
13075,1120,856
13080,1116,855
13085,1104,860
13090,1111,866
13095,1106,871
13100,1098,868
13105,1101,874
13110,1093,871
13115,1086,871
13120,1088,875
13125,1095,882
13130,1076,882
13135,1086,885
13140,1082,881
13145,1076,883
13150,1070,878
13155,1066,878
13160,1064,878
13165,1070,876
13170,1048,878
13175,1051,878
13180,1048,874
13185,1040,875
13190,1032,871
13195,1035,869
13200,1024,866
13205,1025,865
13210,1020,864
13215,1011,865
13220,996,857
13225,991,862
13230,985,857
13235,968,855
13240,956,851
13245,954,854
13250,942,852
13255,934,855
13260,925,851
13265,908,852
13270,909,841
13275,899,840
13280,891,843
13285,862,843
13290,862,843
13295,849,841
13300,841,839
13305,831,838
13310,828,831
13315,809,837
13320,813,834
13325,798,838
13330,788,833
13335,781,830
13340,781,831
13345,769,824
13350,762,827
13355,773,826
13360,757,827
13365,741,826
13370,739,820
13375,756,823
13380,751,819
13385,748,811
13390,745,807
13395,757,807
13400,762,802
13405,764,804
13410,772,793
13415,769,792
13420,780,792
13425,788,787
13430,794,779
13435,800,784
13440,821,778
13445,813,771
13450,833,764
13455,844,760
13460,862,756
13465,867,755
13470,895,752
13475,887,747
13480,911,740
13485,927,737
13490,937,726
13495,947,728
13500,975,721
13505,983,724
13510,1003,716
13515,1023,711
13520,1033,706
13525,1036,707
13530,1052,705
13535,1072,703
13540,1061,697
13545,1092,698
13550,1100,697
13555,1107,691
13560,1119,700
13565,1137,699
13570,1139,688
13575,1133,690
13580,1155,689
13585,1158,699
13590,1165,699
13595,1173,697
13600,1173,702
13605,1183,708
13610,1173,713
13615,1179,708
13620,1197,720
13625,1186,718
13630,1183,719
13635,1194,729
13640,1185,729
13645,1187,742
13650,1195,745
13655,1186,752
13660,1175,755
13665,1185,757
13670,1181,766
13675,1160,775
13680,1172,780
13685,1173,787
13690,1154,785
13695,1157,799
13700,1152,800
13705,1152,810
13710,1141,812
13715,1136,821
13720,1142,823
13725,1137,827
13730,1126,840
13735,1126,844
13740,1116,845
13745,1123,846
13750,1114,852
13755,1111,862
13760,1115,858
13765,1109,871
13770,1106,868
13775,1099,870
13780,1089,873
13785,1101,875
13790,1096,878
13795,1091,870
13800,1093,880
13805,1090,883
13810,1080,874
13815,1087,883
13820,1072,879
13825,1078,875
13830,1069,880
13835,1055,885
13840,1067,880
13845,1060,879
13850,1053,873
13855,1051,878
13860,1040,877
13865,1037,874
13870,1033,866
13875,1023,869
13880,1019,867
13885,1018,864
13890,1008,866
13895,1004,860
13900,994,863
13905,979,857
13910,973,858
13915,967,851
13920,954,857
13925,945,851
13930,948,854
13935,931,856
13940,926,845
13945,905,843
13950,896,846
13955,882,842
13960,868,847
13965,865,840
13970,860,842
13975,846,839
13980,825,837
13985,823,837
13990,816,835
13995,817,834
14000,813,834
14005,792,835
14010,775,830
14015,777,829
14020,761,831
14025,763,827
14030,756,824
14035,751,823
14040,745,824
14045,744,825
14050,748,818
14055,743,821
14060,750,815
14065,752,814
14070,748,804
14075,756,812
14080,751,809
14085,761,800
14090,769,793
14095,776,793
14100,784,787
14105,785,783
14110,800,783
14115,810,772
14120,830,772
14125,842,770
14130,838,764
14135,855,763
14140,875,756
14145,888,746
14150,896,746
14155,911,737
14160,923,732
14165,936,731
14170,947,728
14175,973,719
14180,986,721
14185,995,718
14190,1018,715
14195,1023,704
14200,1031,698
14205,1053,698
14210,1058,698
14215,1071,695
14220,1081,696
14225,1095,695
14230,1109,692
14235,1116,699
14240,1125,696
14245,1135,696
14250,1144,693
14255,1149,688
14260,1162,689
14265,1166,699
14270,1172,696
14275,1171,700
14280,1173,704
14285,1188,707
14290,1183,710
14295,1187,715
14300,1184,720
14305,1190,723
14310,1176,726
14315,1185,725
14320,1184,737
14325,1187,744
14330,1186,747
14335,1178,753
14340,1188,756
14345,1170,760
14350,1180,773
14355,1168,778
14360,1164,783
14365,1158,788
14370,1148,800
14375,1157,799
14380,1151,805
14385,1152,819
14390,1153,819
14395,1139,828
14400,1129,827
14405,1128,839
14410,1123,842
14415,1115,843
14420,1119,848
14425,1114,850
14430,1110,856
14435,1115,858
14440,1113,869
14445,1099,869
14450,1097,863
14455,1094,865
14460,1098,875
14465,1092,878
14470,1092,876
14475,1096,875
14480,1090,876
14485,1082,879
14490,1074,877
14495,1076,877
14500,1076,874
14505,1074,878
14510,1076,879
14515,1064,878
14520,1062,874
14525,1057,880
14530,1045,881
14535,1053,877
14540,1049,871
14545,1041,873
14550,1037,873
14555,1022,863
14560,1017,875
14565,1002,865
14570,996,860
14575,990,863
14580,995,856
14585,978,856
14590,975,856
14595,965,852
14600,953,854
14605,944,849
14610,933,856
14615,924,847
14620,916,849
14625,896,849
14630,885,844
14635,873,846
14640,865,844
14645,847,844
14650,850,839
14655,840,835
14660,822,840
14665,829,835
14670,802,837
14675,799,838
14680,789,830
14685,781,828
14690,775,830
14695,773,825
14700,761,831
14705,764,829
14710,761,826
14715,745,824
14720,740,819
14725,755,819
14730,755,820
14735,747,817
14740,755,809
14745,749,807
14750,754,803
14755,758,805
14760,763,798
14765,773,796
14770,776,792
14775,795,791
14780,788,782
14785,805,775
14790,806,778
14795,825,778
14800,826,766
14805,846,758
14810,862,760
14815,869,750
14820,881,751
14825,893,743
14830,915,741
14835,916,735
14840,932,733
14845,952,728
14850,966,726
14855,969,720
14860,992,713
14865,1009,716
14870,1019,715
14875,1032,706
14880,1048,706
14885,1062,700
14890,1072,694
14895,1096,701
14900,1097,702
14905,1104,693
14910,1129,693
14915,1134,696
14920,1138,687
14925,1152,699
14930,1149,690
14935,1150,690
14940,1163,694
14945,1165,698
14950,1175,701
14955,1180,703
14960,1188,706
14965,1172,712
14970,1191,714
14975,1186,715
14980,1185,724
14985,1196,720
14990,1189,725
14995,1180,740
15000,1188,744
15005,1190,742
15010,1187,754
15015,1189,757
15020,1173,768
15025,1177,772
15030,1174,774
15035,1165,781
15040,1166,791
15045,1151,794
15050,1155,797
15055,1150,808
15060,1140,810
15065,1139,818
15070,1141,817
15075,1138,826
15080,1129,832
15085,1134,832
15090,1124,848
15095,1119,847
15100,1122,851
15105,1110,862
15110,1116,854
15115,1112,863
15120,1110,864
15125,1101,872
15130,1100,875
15135,1103,872
15140,1086,878
15145,1089,876
15150,1089,876
15155,1084,879
15160,1082,875
15165,1081,875
15170,1076,880
15175,1073,886
15180,1078,884
15185,1064,880
15190,1071,876
15195,1059,876
15200,1050,875
15205,1047,873
15210,1052,876
15215,1042,873
15220,1041,875
15225,1037,870
15230,1028,869
15235,1020,864
15240,1019,866
15245,1008,863
15250,999,862
15255,988,862
15260,972,858
15265,964,851
15270,970,854
15275,945,854
15280,942,854
15285,935,847
15290,918,849
15295,912,843
15300,907,847
15305,888,845
15310,878,843
15315,861,840
15320,855,837
15325,853,837
15330,842,842
15335,832,838
15340,827,834
15345,803,838
15350,802,835
15355,791,831
15360,782,833
15365,773,832
15370,772,830
15375,769,829
15380,758,831
15385,756,825
15390,748,823
15395,741,820
15400,739,820
15405,749,816
15410,745,818
15415,749,815
15420,756,813
15425,748,808
15430,755,805
15435,764,800
15440,763,791
15445,777,792
15450,783,790
15455,792,786
15460,789,783
15465,816,778
15470,815,772
15475,836,769
15480,846,766
15485,853,754
15490,865,758
15495,880,748
15500,895,748
15505,900,740
15510,917,741
15515,923,734
15520,940,731
15525,961,728
15530,978,723
15535,989,719
15540,995,714
15545,1019,709
15550,1029,705
15555,1041,701
15560,1054,702
15565,1068,701
15570,1083,698
15575,1094,694
15580,1102,692
15585,1112,690
15590,1131,686
15595,1143,692
15600,1147,695
15605,1152,694
15610,1156,697
15615,1165,695
15620,1157,704
15625,1176,699
15630,1177,704
15635,1190,704
15640,1175,706
15645,1184,713
15650,1182,718
15655,1192,722
15660,1192,721
15665,1189,728
15670,1188,735
15675,1190,738
15680,1181,745
15685,1182,751
15690,1178,751
15695,1181,765
15700,1176,769
15705,1175,776
15710,1166,775
15715,1167,789
15720,1165,791
15725,1154,800
15730,1151,804
15735,1148,810
15740,1132,819
15745,1137,824
15750,1134,829
15755,1135,834
15760,1124,839
15765,1121,845
15770,1118,843
15775,1117,851
15780,1111,862
15785,1113,857
15790,1105,862
15795,1106,867
15800,1102,865
15805,1100,869
15810,1096,871
15815,1093,868
15820,1093,874
15825,1079,876
15830,1086,877
15835,1079,871
15840,1080,890
15845,1074,873
15850,1077,878
15855,1067,882
15860,1077,879
15865,1065,880
15870,1057,877
15875,1057,876
15880,1056,875
15885,1045,875
15890,1050,879
15895,1034,872
15900,1044,872
15905,1017,873
15910,1028,865
15915,1012,872
15920,1000,859
15925,999,860
15930,989,856
15935,987,859
15940,974,856
15945,962,859
15950,963,855
15955,942,850
15960,931,849
15965,920,847
15970,910,842
15975,896,846
15980,886,841
15985,882,847
15990,871,848
15995,861,843
16000,863,843
16004,837,842
16010,827,840
16015,823,840
16020,810,832
16024,801,833
16030,805,831
16035,787,833
16040,773,830
16045,770,834
16050,770,827
16055,767,825
16059,753,824
16065,752,825
16070,748,822
16075,752,825
16079,746,819
16085,746,818
16090,747,808
16094,749,810
16100,755,807
16105,753,807
16110,756,799
16114,763,800
16120,775,799
16125,779,789
16129,790,784
16135,793,781
16140,808,782
16145,817,775
16149,817,774
16155,835,766
16160,842,761
16165,866,753
16170,869,752
16175,879,747
16180,890,745
16184,905,738
16190,920,734
16195,942,725
16200,950,724
16204,975,719
16210,989,715
16215,993,715
16219,1018,710
16225,1024,711
16230,1037,703
16235,1063,702
16239,1073,698
16245,1086,695
16250,1093,696
16254,1106,693
16260,1108,693
16265,1115,690
16270,1138,695
16274,1136,689
16280,1152,696
16285,1156,696
16290,1167,694
16295,1170,701
16300,1169,696
16305,1173,700
16309,1180,706
16315,1181,708
16320,1192,712
16325,1188,711
16329,1189,720
16335,1181,725
16340,1187,728
16344,1182,734
16350,1191,740
16355,1192,742
16360,1186,747
16364,1177,750
16370,1178,752
16375,1161,762
16379,1169,772
16385,1165,782
16390,1154,783
16395,1168,792
16400,1158,796
16405,1153,800
16410,1153,806
16415,1137,816
16420,1148,820
16425,1135,824
16430,1139,827
16435,1128,834
16440,1129,842
16445,1119,846
16450,1117,851
16455,1108,852
16460,1120,860
16465,1104,858
16470,1113,866
16475,1105,866
16480,1103,864
16485,1103,871
16490,1101,874
16495,1092,875
16500,1094,876
16505,1089,876
16510,1086,876
16515,1086,876
16520,1086,882
16525,1070,878
16530,1074,880
16535,1072,876
16540,1068,881
16545,1066,877
16550,1051,877
16555,1054,872
16560,1059,873
16565,1041,870
16570,1050,871
16575,1037,866
16580,1036,867
16585,1015,865
16590,1015,862
16595,998,862
16600,1001,867
16605,989,859
16610,985,856
16615,974,857
16620,972,853
16625,960,854
16630,950,848
16635,933,856
16640,938,845
16645,908,851
16650,899,848
16655,894,843
16660,891,839
16665,880,842
16670,869,847
16675,857,836
16680,840,843
16685,828,843
16690,828,838
16695,817,837
16700,810,833
16705,797,834
16710,796,836
16715,777,831
16720,778,827
16725,773,829
16730,761,829
16735,762,825
16740,754,826
16745,756,828
16750,741,816
16755,750,818
16760,746,815
16765,750,813
16770,751,812
16775,760,807
16780,761,805
16785,753,801
16790,767,797
16795,767,796
16800,772,788
16805,789,790
16810,792,781
16815,793,778
16820,818,779
16825,824,770
16830,832,765
16835,841,759
16840,861,756
16845,865,749
16850,884,745
16855,895,748
16860,908,744
16865,924,737
16870,929,733
16875,945,728
16880,968,724
16885,982,717
16890,992,717
16895,1013,714
16900,1020,712
16905,1042,706
16910,1049,702
16915,1059,705
16920,1074,695
16925,1095,696
16930,1097,692
16935,1094,691
16940,1123,690
16945,1122,696
16950,1132,689
16955,1150,694
16960,1150,692
16965,1162,693
16970,1159,699
16975,1168,699
16980,1173,702
16985,1181,704
16990,1183,707
16995,1174,714
17000,1190,716
17005,1192,715
17010,1199,722
17015,1189,727
17020,1190,731
17025,1186,737
17030,1189,745
17035,1180,753
17040,1178,747
17045,1179,759
17050,1172,764
17055,1173,770
17060,1168,778
17065,1167,784
17070,1170,789
17075,1151,794
17080,1156,794
17085,1142,806
17090,1154,813
17095,1146,824
17100,1138,824
17105,1130,828
17110,1137,832
17115,1135,841
17120,1120,844
17125,1124,847
17130,1116,850
17135,1113,860
17140,1110,858
17145,1113,861
17150,1099,865
17155,1110,871
17160,1104,869
17165,1094,874
17170,1096,870
17175,1087,877
17180,1095,882
17185,1094,880
17190,1085,880
17195,1074,879
17200,1074,884
17205,1070,883
17210,1069,874
17215,1064,877
17220,1064,880
17225,1074,877
17230,1054,875
17235,1058,874
17240,1055,872
17245,1043,873
17250,1039,873
17255,1034,868
17260,1026,870
17265,1019,865
17270,1013,863
17275,1002,864
17280,989,861
17285,984,863
17290,982,859
17295,979,853
17300,961,860
17305,951,852
17310,939,852
17315,929,852
17320,926,852
17325,916,849
17330,907,848
17335,886,844
17340,886,843
17345,873,843
17350,866,840
17355,851,836
17360,838,842
17365,833,835
17370,817,833
17375,817,834
17380,801,834
17385,787,829
17390,776,827
17395,765,832
17400,767,828
17405,773,833
17410,766,829
17415,757,822
17420,755,825
17425,746,824
17430,746,820
17435,732,815
17440,760,820
17445,747,812
17450,755,816
17455,749,806
17460,766,802
17465,757,795
17470,755,796
17475,772,792
17480,782,788
17485,789,782
17490,800,779
17495,805,780
17500,823,771
17505,830,771
17510,842,769
17515,858,761
17520,872,751
17525,881,749
17530,899,746
17535,900,740
17540,917,738
17545,946,734
17550,953,728
17555,968,727
17560,979,725
17565,987,717
17570,1004,715
17575,1024,709
17580,1030,708
17585,1055,705
17590,1061,703
17595,1075,704
17600,1082,698
17605,1096,694
17610,1105,693
17615,1109,694
17620,1127,695
17625,1141,692
17630,1144,691
17635,1144,697
17640,1162,694
17645,1165,693
17650,1172,696
17655,1170,697
17660,1175,701
17665,1175,702
17670,1176,706
17675,1187,713
17680,1198,715
17685,1191,716
17690,1193,729
17695,1176,733
17700,1190,740
17705,1181,738
17710,1185,743
17715,1180,751
17720,1179,755
17725,1175,759
17730,1173,774
17735,1164,769
17740,1167,780
17745,1166,789
17750,1160,794
17755,1149,803
17760,1148,805
17765,1143,810
17770,1142,812
17775,1131,825
17780,1139,829
17785,1133,836
17790,1133,844
17795,1119,841
17800,1118,846
17805,1119,854
17810,1114,858
17815,1108,855
17820,1113,861
17825,1110,866
17830,1103,868
17835,1096,869
17840,1102,870
17845,1098,873
17850,1084,872
17855,1084,877
17860,1081,882
17865,1086,877
17870,1083,880
17875,1077,885
17880,1078,881
17885,1077,881
17890,1059,877
17895,1066,882
17900,1056,883
17905,1056,872
17910,1046,876
17915,1045,870
17920,1047,869
17925,1043,869
17930,1033,872
17935,1021,873
17940,1014,867
17945,1018,869
17950,1008,867
17955,994,863
17960,983,859
17965,983,859
17970,967,859
17975,959,852
17980,944,849
17985,937,852
17990,933,848
17995,921,847
18000,913,847
18005,900,845
18010,898,844
18015,876,841
18020,872,843
18025,864,843
18030,855,842
18035,838,845
18040,831,842
18045,823,837
18050,810,841
18055,794,835
18060,797,832
18065,786,834
18070,774,833
18075,770,831
18080,768,830
18085,763,823
18090,754,826
18095,759,827
18100,744,822
18105,751,820
18110,747,818
18115,751,817
18120,752,806
18125,738,804
18130,748,804
18135,753,805
18140,757,803
18145,772,800
18150,765,792
18155,782,785
18160,785,785
18165,788,782
18170,798,780
18175,821,772
18180,826,769
18185,841,763
18190,845,762
18195,867,751
18200,875,756
18205,891,748
18210,905,741
18215,924,741
18220,933,731
18225,955,729
18230,961,718
18235,979,723
18240,982,722
18245,995,706
18250,1023,709
18255,1030,710
18260,1038,703
18265,1056,704
18270,1074,697
18275,1080,701
18280,1098,692
18285,1106,694
18290,1102,694
18295,1125,689
18300,1123,694
18305,1135,693
18310,1147,691
18315,1150,695
18320,1169,693
18325,1168,697
18330,1176,703
18335,1174,706
18340,1169,703
18345,1183,709
18350,1186,709
18355,1182,715
18360,1190,716
18365,1187,722
18370,1186,727
18375,1181,732
18380,1179,738
18385,1179,745
18390,1189,749
18395,1188,753
18400,1174,756
18405,1178,766
18410,1174,776
18415,1176,779
18420,1164,786
18425,1163,793
18430,1147,798
18435,1164,802
18440,1161,811
18445,1150,813
18450,1138,821
18455,1132,823
18460,1120,832
18465,1129,834
18470,1124,844
18475,1116,849
18480,1114,851
18485,1114,852
18490,1110,854
18495,1098,866
18500,1116,863
18505,1104,864
18510,1092,869
18515,1100,876
18520,1095,870
18525,1089,880
18530,1084,874
18535,1084,878
18540,1080,879
18545,1085,885
18550,1085,877
18555,1082,876
18560,1081,878
18565,1083,878
18570,1074,876
18575,1065,876
18580,1061,878
18585,1053,875
18590,1043,871
18595,1051,866
18600,1041,873
18605,1028,868
18610,1027,871
18615,1022,869
18620,1013,866
18625,1009,864
18630,1004,863
18635,987,860
18640,986,858
18645,978,858
18650,974,856
18655,961,853
18660,953,852
18665,935,849
18670,929,849
18675,913,844
18680,905,851
18685,891,850
18690,892,849
18695,873,846
18700,861,843
18705,855,840
18710,847,838
18715,823,834
18720,834,843
18725,800,837
18730,802,836
18735,790,839
18740,788,835
18745,782,836
18750,773,829
18755,765,827
18760,755,820
18765,759,824
18770,756,825
18775,747,823
18780,761,819
18785,760,824
18790,744,817
18795,744,812
18800,745,809
18805,751,810
18810,761,800
18815,758,807
18820,768,799
18825,781,792
18830,779,790
18835,787,787
18840,793,780
18845,798,778
18850,819,770
18855,830,774
18860,832,765
18865,844,761
18870,855,754
18875,872,751
18880,887,746
18885,905,742
18890,913,736
18895,926,734
18900,937,730
18905,958,728
18910,975,721
18915,986,720
18920,1002,717
18925,997,714
18930,1023,707
18935,1037,710
18940,1049,703
18945,1070,696
18950,1088,700
18955,1090,695
18960,1098,690
18965,1110,698
18970,1122,695
18975,1132,690
18980,1145,693
18985,1142,696
18990,1153,695
18995,1161,693
19000,1157,705
19005,1169,697
19010,1183,700
19015,1178,705
19020,1180,708
19025,1183,714
19030,1191,713
19035,1193,714
19040,1180,724
19045,1185,731
19050,1185,734
19055,1176,740
19060,1182,746
19065,1176,751
19070,1182,753
19075,1175,758
19080,1173,762
19085,1169,774
19090,1166,779
19095,1165,785
19100,1166,792
19105,1160,798
19110,1151,805
19115,1153,806
19120,1147,814
19125,1141,826
19130,1142,827
19135,1130,828
19140,1127,833
19145,1123,842
19150,1121,842
19155,1127,851
19160,1123,855
19165,1111,855
19170,1106,862
19175,1107,866
19180,1105,859
19185,1104,868
19190,1101,874
19195,1102,875
19200,1090,874
19205,1087,881
19210,1089,877
19215,1085,876
19220,1083,874
19225,1083,876
19230,1069,879
19235,1071,877
19240,1067,876
19245,1074,876
19250,1068,878
19255,1068,876
19260,1051,877
19265,1053,875
19270,1057,871
19275,1042,869
19280,1034,871
19285,1024,872
19290,1022,865
19295,1020,862
19300,1017,867
19305,1005,863
19310,989,858
19315,983,859
19320,977,855
19325,969,854
19330,955,849
19335,944,847
19340,932,848
19345,918,850
19350,925,851
19355,901,843
19360,904,850
19365,892,844
19370,876,846
19375,864,842
19380,853,842
19385,843,846
19390,844,842
19395,824,835
19400,817,835
19405,804,840
19410,798,835
19415,793,833
19420,777,831
19425,772,833
19430,764,831
19435,764,825
19440,759,835
19445,745,829
19450,744,816
19455,751,815
19460,749,814
19465,749,817
19470,746,812
19475,747,813
19480,740,801
19485,753,802
19490,758,801
19495,764,796
19500,771,795
19505,772,796
19510,791,786
19515,790,788
19520,803,779
19525,805,772
19530,825,773
19535,833,763
19540,847,760
19545,855,753
19550,861,755
19555,885,749
19560,896,749
19565,900,743
19570,928,737
19575,934,727
19580,953,731
19585,962,724
19590,979,715
19595,997,715
19600,1007,714
19605,1030,711
19610,1035,705
19615,1045,700
19620,1061,700
19625,1071,698
19630,1095,697
19635,1094,693
19640,1111,693
19645,1120,693
19650,1134,687
19655,1141,695
19660,1143,691
19665,1148,695
19670,1158,693
19675,1171,691
19680,1158,703
19685,1179,698
19690,1173,704
19695,1181,709
19700,1178,711
19705,1192,716
19710,1188,719
19715,1176,722
19720,1193,727
19725,1197,733
19730,1179,734
19735,1179,746
19740,1187,745
19745,1188,751
19750,1177,758
19755,1169,765
19760,1170,774
19765,1162,776
19770,1170,782
19775,1162,787
19780,1158,795
19785,1146,802
19790,1148,809
19795,1153,814
19800,1144,817
19805,1136,827
19810,1137,824
19815,1127,833
19820,1123,843
19825,1118,844
19830,1128,845
19835,1118,851
19840,1115,858
19845,1107,857
19850,1104,864
19855,1111,865
19860,1096,872
19865,1097,872
19870,1100,871
19875,1097,882
19880,1093,873
19885,1082,881
19890,1088,882
19895,1087,883
19900,1080,882
19905,1082,883
19910,1074,879
19915,1073,879
19920,1066,876
19925,1068,874
19930,1064,873
19935,1059,872
19940,1064,874
19945,1049,871
19950,1047,876
19955,1036,873
19960,1034,866
19965,1018,864
19970,1024,865
19975,1021,864
19980,1013,861
19985,999,864
19990,987,858
19995,983,854
20000,974,855
20005,955,856
20010,951,848
20015,935,849
20020,929,846
20025,922,847
20030,913,838
20035,905,843
20040,901,849
20045,881,848
20050,864,838
20055,859,837
20060,850,841
20065,844,839
20070,823,834
20075,822,839
20080,807,833
20085,782,833
20090,796,829
20095,793,835
20100,780,829
20105,773,833
20110,772,828
20115,766,828
20120,764,826
20125,758,825
20130,745,818
20135,744,812
20140,745,818
20145,755,812
20150,753,807
20155,742,809
20160,749,801
20165,763,802
20170,760,797
20175,779,798
20180,777,794
20185,781,787
20190,789,791
20195,796,779
20200,807,777
20205,818,773
20210,834,768
20215,838,758
20220,854,756
20225,867,751
20230,873,750
20235,896,745
20240,906,742
20245,918,737
20250,930,731
20255,951,728
20260,965,722
20265,973,726
20270,998,721
20275,1012,710
20280,1023,709
20285,1032,705
20290,1050,705
20295,1057,697
20300,1065,698
20305,1078,700
20310,1098,694
20315,1106,690
20320,1114,697
20325,1118,694
20330,1140,692
20335,1139,700
20340,1153,694
20345,1165,694
20350,1170,692
20355,1167,697
20360,1172,703
20365,1176,701
20370,1179,702
20375,1183,708
20380,1183,712
20385,1191,713
20390,1185,725
20395,1181,723
20400,1188,730
20405,1182,732
20410,1184,744
20415,1194,743
20420,1168,755
20425,1181,756
20430,1177,762
20435,1177,769
20440,1170,780
20445,1164,779
20450,1161,787
20455,1162,790
20460,1156,799
20465,1155,808
20470,1151,813
20475,1130,817
20480,1138,823
20485,1134,828
20490,1133,835
20495,1123,835
20500,1125,843
20505,1123,849
20510,1122,854
20515,1119,852
20520,1108,855
20525,1112,862
20530,1106,865
20535,1100,866
20540,1099,873
20545,1102,875
20550,1098,879
20555,1085,874
20560,1092,876
20565,1085,879
20570,1081,873
20575,1083,875
20580,1087,885
20585,1078,881
20590,1075,877
20595,1071,877
20600,1079,874
20605,1060,874
20610,1067,871
20615,1055,872
20620,1054,869
20625,1047,877
20630,1037,873
20635,1029,866
20640,1030,866
20645,1022,864
20650,1006,867
20655,1006,867
20660,1006,863
20665,990,859
20670,984,859
20675,974,852
20680,959,854
20685,955,852
20690,941,856
20695,938,848
20700,924,852
20705,908,846
20710,904,849
20715,892,845
20720,887,840
20725,868,839
20730,861,846
20735,846,840
20740,840,836
20745,816,842
20750,822,837
20755,807,836
20760,802,836
20765,791,838
20770,778,828
20775,786,833
20780,779,828
20785,765,827
20790,759,828
20795,753,826
20800,743,824
20805,755,825
20810,740,812
20815,748,815
20820,753,813
20825,743,808
20830,747,809
20835,754,808
20840,752,806
20845,760,795
20850,765,803
20855,773,794
20860,784,792
20865,781,784
20870,793,779
20875,813,776
20880,820,775
20885,831,770
20890,835,765
20895,850,763
20900,860,748
20905,873,756
20910,901,746
20915,902,745
20920,914,738
20925,930,732
20930,953,732
20935,959,724
20940,974,721
20945,987,719
20950,1009,718
20955,1022,706
20960,1034,707
20965,1052,707
20970,1058,704
20975,1055,702
20980,1083,694
20985,1086,701
20990,1090,698
20995,1113,696
21000,1118,687
21005,1133,690
21010,1136,686
21015,1147,686
21020,1150,693
21025,1155,693
21030,1173,691
21035,1169,697
21040,1178,701
21045,1171,703
21050,1188,705
21055,1187,715
21060,1189,720
21065,1186,725
21070,1183,724
21075,1183,729
21080,1189,735
21085,1180,737
21090,1184,746
21095,1192,751
21100,1173,754
21105,1169,762
21110,1183,764
21115,1167,776
21120,1163,776
21125,1164,789
21130,1163,796
21135,1158,803
21140,1157,812
21145,1157,812
21150,1139,816
21155,1132,821
21160,1131,827
21165,1138,834
21170,1132,839
21175,1121,843
21180,1117,848
21185,1121,847
21190,1115,852
21195,1114,853
21200,1108,862
21205,1103,862
21210,1110,869
21215,1101,871
21220,1085,870
21225,1096,878
21230,1092,880
21235,1095,872
21240,1095,876
21245,1086,885
21250,1074,882
21255,1073,878
21260,1076,876
21265,1077,887
21270,1072,878
21275,1060,879
21280,1074,878
21285,1054,874
21290,1065,876
21295,1042,875
21300,1036,873
21305,1053,875
21310,1028,873
21315,1022,863
21320,1019,866
21325,1018,868
21330,1011,868
21335,1008,867
21340,983,859
21345,979,858
21350,981,860
21355,967,855
21360,956,857
21365,938,857
21370,941,854
21375,920,852
21380,920,851
21385,902,847
21390,894,845
21395,882,840
21400,874,838
21405,862,841
21410,858,840
21415,842,837
21420,831,840
21425,817,835
21430,822,840
21435,800,833
21440,799,838
21445,792,832
21450,783,832
21455,775,831
21460,765,830
21465,758,826
21470,761,826
21475,760,828
21480,756,822
21485,744,818
21490,746,816
21495,759,819
21500,753,811
21505,757,817
21510,758,801
21515,763,805
21520,765,799
21525,763,799
21530,777,797
21535,770,788
21540,784,784
21545,790,785
21550,801,780
21555,810,777
21560,829,768
21565,834,760
21570,849,766
21575,861,758
21580,864,753
21585,879,747
21590,898,742
21595,918,735
21600,924,733
21605,945,733
21610,954,725
21615,970,723
21620,991,715
21625,1002,718
21630,992,713
21635,1031,706
21640,1039,703
21645,1058,703
21650,1065,703
21655,1080,707
21660,1094,699
21665,1105,696
21670,1108,694
21675,1124,691
21680,1132,692
21685,1141,689
21690,1147,695
21695,1152,688
21700,1156,698
21705,1164,702
21710,1170,693
21715,1171,702
21720,1180,702
21725,1176,712
21730,1193,713
21735,1188,714
21740,1187,712
21745,1190,723
21750,1190,727
21755,1190,734
21760,1175,740
21765,1188,740
21770,1185,752
21775,1184,757
21780,1174,761
21785,1179,767
21790,1175,771
21795,1167,769
21800,1167,791
21805,1152,791
21810,1153,800
21815,1158,801
21820,1145,806
21825,1129,814
21830,1142,815
21835,1141,828
21840,1137,831
21845,1130,838
21850,1133,838
21855,1119,844
21860,1116,852
21865,1112,855
21870,1121,858
21875,1110,858
21880,1111,866
21885,1106,870
21890,1098,866
21895,1101,871
21900,1102,870
21905,1100,875
21910,1099,875
21915,1088,871
21920,1096,877
21925,1077,878
21930,1081,886
21935,1083,880
21940,1075,876
21945,1071,874
21950,1070,878
21955,1074,872
21960,1064,877
21965,1057,880
21970,1053,874
21975,1041,875
21980,1046,872
21985,1040,871
21990,1027,868
21995,1027,871
22000,1014,867
22005,1015,863
22010,1001,860
22015,993,859
22020,992,860
22025,980,858
22030,960,857
22035,965,852
22040,946,847
22045,940,853
22050,931,853
22055,919,848
22060,898,848
22065,890,843
22070,872,840
22075,878,845
22080,872,840
22085,861,837
22090,842,838
22095,833,843
22100,831,836
22105,815,833
22110,809,836
22115,802,837
22120,790,832
22125,781,828
22130,774,830
22135,767,825
22140,763,827
22145,754,822
22150,755,825
22155,760,822
22160,744,825
22165,746,815
22170,746,817
22175,742,813
22180,753,812
22185,753,806
22190,752,806
22195,758,799
22200,753,791
22205,772,797
22210,783,791
22215,786,788
22220,793,784
22225,805,778
22230,804,783
22235,823,768
22240,839,768
22245,837,760
22250,854,754
22255,871,757
22260,877,751
22265,897,752
22270,907,738
22275,926,731
22280,938,731
22285,953,727
22290,961,725
22295,977,719
22300,994,721
22305,1016,718
22310,1020,704
22315,1038,702
22320,1050,704
22325,1058,707
22330,1076,698
22335,1094,697
22340,1091,698
22345,1110,696
22350,1119,691
22355,1131,695
22360,1133,691
22365,1141,694
22370,1158,687
22375,1160,693
22380,1167,693
22385,1174,697
22390,1173,700
22395,1171,707
22400,1183,706
22405,1196,709
22410,1186,716
22415,1186,718
22420,1184,720
22425,1188,729
22430,1187,738
22435,1178,738
22440,1186,741
22445,1186,745
22450,1192,750
22455,1172,767
22460,1169,767
22465,1176,767
22470,1164,777
22475,1166,785
22480,1155,791
22485,1164,789
22490,1147,799
22495,1153,811
22500,1145,812
22505,1138,819
22510,1136,824
22515,1128,831
22520,1129,836
22525,1129,839
22530,1123,839
22535,1122,841
22540,1115,855
22545,1104,855
22550,1103,862
22555,1100,863
22560,1107,869
22565,1102,873
22570,1106,869
22575,1088,876
22580,1103,873
22585,1093,878
22590,1084,876
22595,1094,878
22600,1090,876
22605,1085,882
22610,1075,881
22615,1072,877
22620,1078,876
22625,1078,876
22630,1066,881
22635,1063,874
22640,1062,875
22645,1055,868
22650,1045,875
22655,1045,873
22660,1033,876
22665,1030,867
22670,1024,868
22675,1019,868
22680,996,867
22685,1003,857
22690,999,859
22695,988,857
22700,981,864
22705,978,852
22710,960,853
22715,943,851
22720,945,850
22725,929,850
22730,917,857
22735,914,847
22740,904,850
22745,891,839
22750,878,845
22755,870,839
22760,863,839
22765,839,840
22770,840,840
22775,832,838
22780,822,832
22785,805,841
22790,793,836
22795,785,831
22800,805,832
22805,777,830
22810,762,830
22815,767,829
22820,764,829
22825,760,824
22830,748,824
22835,747,824
22840,752,823
22845,748,815
22850,747,808
22855,744,808
22860,755,807
22865,743,810
22870,757,798
22875,763,801
22880,784,797
22885,768,792
22890,776,793
22895,785,779
22900,799,782
22905,801,777
22910,822,765
22915,826,772
22920,844,766
22925,858,755
22930,868,757
22935,886,751
22940,891,744
22945,898,745
22950,918,744
22955,936,728
22960,950,724
22965,965,729
22970,982,717
22975,992,720
22980,1003,714
22985,1013,703
22990,1037,710
22995,1052,703
23000,1059,704
23005,1071,699
23010,1083,700
23015,1102,694
23020,1100,699
23025,1110,698
23030,1125,692
23035,1136,690
23040,1141,695
23045,1154,693
23050,1161,694
23055,1159,697
23060,1160,698
23065,1176,700
23070,1181,697
23075,1179,706
23080,1187,711
23085,1182,713
23090,1196,718
23095,1190,716
23100,1184,725
23105,1191,736
23110,1182,734
23115,1187,743
23120,1190,739
23125,1182,752
23130,1175,758
23135,1183,763
23140,1170,775
23145,1173,772
23150,1167,782
23155,1163,782
23160,1166,792
23165,1155,803
23170,1160,802
23175,1149,811
23180,1144,818
23185,1135,827
23190,1146,829
23195,1131,835
23200,1123,834
23205,1131,841
23210,1127,849
23215,1118,855
23220,1125,850
23225,1113,859
23230,1112,864
23235,1111,865
23240,1100,867
23245,1091,868
23250,1098,866
23255,1089,877
23260,1091,875
23265,1095,878
23270,1081,880
23275,1088,877
23280,1076,877
23285,1086,882
23290,1080,878
23295,1074,883
23300,1073,881
23305,1064,879
23310,1061,880
23315,1062,877
23320,1056,874
23325,1049,875
23330,1042,871
23335,1039,862
23340,1029,865
23345,1035,866
23350,1028,867
23355,1018,864
23360,999,858
23365,999,862
23370,987,860
23375,979,861
23380,973,858
23385,962,855
23390,953,846
23395,929,851
23400,935,853
23405,925,854
23410,917,847
23415,898,848
23420,889,842
23425,882,846
23430,870,843
23435,859,845
23440,847,840
23445,836,842
23450,828,841
23455,815,839
23460,816,838
23465,810,832
23470,797,834
23475,787,837
23480,785,832
23485,768,828
23490,770,830
23495,763,826
23500,763,825
23505,755,824
23510,753,820
23515,746,819
23520,752,823
23525,748,812
23530,748,815
23535,747,808
23540,751,809
23545,764,808
23550,761,801
23555,769,793
23560,780,797
23565,783,795
23570,794,785
23575,794,785
23580,804,782
23585,820,769
23590,832,769
23595,831,765
23600,842,760
23605,856,752
23610,873,752
23615,892,749
23620,901,741
23625,921,738
23630,922,737
23635,943,727
23640,958,719
23645,970,720
23650,986,717
23655,1002,712
23660,1013,714
23665,1024,707
23670,1048,699
23675,1058,704
23680,1069,698
23685,1069,698
23690,1101,698
23695,1115,698
23700,1106,694
23705,1117,697
23710,1126,688
23715,1135,691
23720,1153,693
23725,1146,697
23730,1156,699
23735,1168,696
23740,1170,704
23745,1190,700
23750,1178,710
23755,1186,701
23760,1183,710
23765,1189,711
23770,1184,717
23775,1180,717
23780,1191,726
23785,1192,731
23790,1181,737
23795,1177,748
23800,1178,752
23805,1189,756
23810,1174,760
23815,1172,763
23820,1170,774
23825,1172,777
23830,1163,788
23835,1165,793
23840,1159,795
23845,1157,802
23850,1145,814
23855,1147,813
23860,1141,819
23865,1135,830
23870,1122,830
23875,1124,840
23880,1122,841
23885,1116,844
23890,1115,847
23895,1116,846
23900,1113,857
23905,1114,860
23910,1107,866
23915,1104,870
23920,1102,868
23925,1100,868
23930,1095,877
23935,1094,881
23940,1093,876
23945,1088,875
23950,1079,882
23955,1083,880
23960,1080,883
23965,1086,882
23970,1071,881
23975,1069,880
23980,1061,882
23985,1065,878
23990,1061,879
23995,1058,878
24000,1055,873
24005,1046,872
24010,1044,868
24015,1023,867
24020,1027,868
24025,1026,867
24030,1007,865
24035,1002,858
24040,1008,861
24045,990,863
24050,986,854
24055,972,857
24060,971,854
24065,960,851
24070,951,853
24075,936,853
24080,930,839
24085,916,847
24090,903,845
24095,893,848
24100,885,848
24105,882,841
24110,856,842
24115,852,841
24120,845,840
24125,838,832
24130,824,838
24135,819,835
24140,806,834
24145,807,834
24150,792,832
24155,776,833
24160,774,831
24165,758,827
24170,756,828
24175,750,819
24180,749,825
24185,754,819
24190,756,818
24195,753,819
24200,746,815
24205,750,815
24210,750,809
24215,747,805
24220,756,809
24225,750,800
24230,757,795
24235,769,793
24240,785,790
24245,790,783
24250,792,780
24255,802,778
24260,818,781
24265,821,771
24270,827,756
24275,845,765
24280,859,761
24285,880,756
24290,887,746
24295,893,739
24300,905,742
24305,925,737
24310,939,731
24315,955,726
24320,973,718
24325,988,724
24330,1001,719
24335,1013,717
24340,1020,709
24345,1038,706
24350,1046,706
24355,1066,703
24360,1086,693
24365,1094,701
24370,1112,692
24375,1107,694
24380,1126,690
24385,1127,688
24390,1140,692
24395,1140,695
24400,1155,692
24405,1158,696
24410,1164,699
24415,1172,698
24420,1180,702
24425,1179,702
24430,1185,705
24435,1189,711
24440,1189,717
24445,1184,719
24450,1195,720
24455,1190,729
24460,1184,733
24465,1182,738
24470,1178,742
24475,1182,747
24480,1182,755
24485,1173,755
24490,1176,763
24495,1171,773
24500,1175,778
24505,1165,784
24510,1160,792
24515,1153,797
24520,1153,802
24525,1150,803
24530,1142,813
24535,1149,820
24540,1129,824
24545,1133,828
24550,1126,836
24555,1129,843
24560,1124,844
24565,1112,850
24570,1107,853
24575,1110,858
24580,1102,862
24585,1106,864
24590,1110,869
24595,1101,866
24600,1098,864
24605,1102,874
24610,1104,873
24615,1095,872
24620,1085,877
24625,1077,879
24630,1082,885
24635,1080,886
24640,1087,882
24645,1085,881
24650,1073,876
24655,1067,875
24660,1065,881
24665,1060,883
24670,1057,872
24675,1056,875
24680,1041,876
24685,1042,877
24690,1037,871
24695,1032,870
24700,1016,861
24705,1023,863
24710,1009,865
24715,1002,862
24720,981,862
24725,979,862
24730,977,860
24735,969,856
24740,952,859
24745,945,852
24750,942,853
24755,925,850
24760,913,853
24765,906,849
24770,896,848
24775,885,845
24780,872,846
24785,858,844
24790,854,842
24795,840,840
24800,851,842
24805,820,836
24810,817,840
24815,816,838
24820,798,823
24825,783,834
24830,786,836
24835,778,824
24840,769,828
24845,763,829
24850,755,832
24855,752,831
24860,752,816
24865,752,823
24870,745,817
24875,748,816
24880,747,812
24885,747,813
24890,751,813
24895,754,810
24900,757,804
24905,761,804
24910,768,792
24915,776,791
24920,780,785
24925,791,785
24930,798,779
24935,803,774
24940,827,768
24945,836,766
24950,838,760
24955,861,765
24960,863,757
24965,884,750
24970,899,738
24975,907,741
24980,926,737
24985,943,734
24990,957,726
24995,965,722
25000,977,717
25005,996,709
25010,1000,708
25015,1028,709
25020,1039,710
25025,1056,702
25030,1067,701
25035,1070,704
25040,1084,698
25045,1092,695
25050,1103,697
25055,1120,696
25060,1130,694
25065,1130,695
25070,1153,693
25075,1147,693
25080,1158,699
25085,1162,697
25090,1170,698
25095,1178,702
25100,1171,700
25105,1183,708
25110,1188,714
25115,1187,712
25120,1192,716
25125,1182,721
25130,1184,723
25135,1186,730
25140,1191,735
25145,1185,741
25150,1189,744
25155,1185,748
25160,1180,761
25165,1179,768
25170,1167,767
25175,1177,775
25180,1160,783
25185,1160,786
25190,1168,793
25195,1151,798
25200,1155,808
25205,1147,815
25210,1149,819
25215,1138,824
25220,1132,827
25225,1133,829
25230,1130,840
25235,1130,842
25240,1122,850
25245,1113,853
25250,1118,857
25255,1115,861
25260,1105,863
25265,1112,869
25270,1102,867
25275,1100,870
25280,1095,871
25285,1100,877
25290,1093,881
25295,1097,874
25300,1083,872
25305,1083,879
25310,1088,878
25315,1085,880
25320,1076,878
25325,1076,878
25330,1067,878
25335,1056,877
25340,1064,873
25345,1056,873
25350,1059,874
25355,1053,878
25360,1034,871
25365,1040,874
25370,1043,869
25375,1017,867
25380,1018,861
25385,1016,863
25390,1009,866
25395,987,863
25400,994,859
25405,984,853
25410,974,853
25415,961,854
25420,951,854
25425,934,857
25430,935,848
25435,923,852
25440,916,844
25445,893,851
25450,890,843
25455,875,842
25460,871,842
25465,865,842
25470,848,834
25475,837,839
25480,822,836
25485,823,835
25490,808,833
25495,801,836
25500,795,836
25505,790,835
25510,780,830
25515,765,828
25520,771,832
25525,766,826
25530,751,823
25535,750,820
25540,746,819
25545,748,819
25550,746,815
25555,747,815
25560,752,811
25565,759,806
25570,756,808
25575,754,801
25580,764,804
25585,768,796
25590,777,793
25595,777,789
25600,786,789
25605,800,780
25610,815,775
25615,809,769
25620,839,770
25625,837,763
25630,849,755
25635,865,755
25640,875,754
25645,906,751
25650,907,746
25655,924,739
25660,931,734
25665,950,728
25670,965,728
25675,974,721
25680,992,720
25685,1002,715
25690,1017,710
25695,1031,710
25700,1042,709
25705,1064,700
25710,1072,701
25715,1082,694
25720,1103,699
25725,1098,694
25730,1116,694
25735,1128,694
25740,1135,692
25745,1139,695
25750,1145,692
25755,1161,700
25760,1163,694
25765,1157,699
25770,1177,699
25775,1179,704
25780,1184,704
25785,1185,711
25790,1178,713
25795,1178,716
25800,1182,720
25805,1185,725
25810,1180,730
25815,1187,736
25820,1191,745
25825,1182,748
25830,1183,758
25835,1180,759
25840,1171,766
25845,1184,774
25850,1164,776
25855,1171,781
25860,1165,789
25865,1154,790
25870,1156,801
25875,1149,807
25880,1141,811
25885,1141,815
25890,1148,819
25895,1142,826
25900,1130,833
25905,1127,834
25910,1128,843
25915,1122,849
25920,1125,853
25925,1123,859
25930,1114,859
25935,1112,864
25940,1102,867
25945,1112,867
25950,1109,869
25955,1088,869
25960,1094,875
25965,1095,877
25970,1099,877
25975,1092,874
25980,1086,883
25985,1092,880
25990,1084,876
25995,1076,880
26000,1066,883
26005,1080,876
26010,1066,877
26015,1069,876
26020,1061,873
26025,1057,874
26030,1061,871
26035,1045,870
26040,1034,869
26045,1042,872
26050,1034,869
26055,1017,863
26060,1016,867
26065,1006,861
26070,993,863
26075,988,858
26080,985,855
26085,979,856
26090,971,856
26095,959,855
26100,935,855
26105,932,847
26110,927,843
26115,918,852
26120,904,854
26125,896,844
26130,882,845
26135,862,848
26140,858,841
26145,850,843
26150,837,840
26155,836,836
26160,814,840
26165,812,835
26170,805,837
26175,792,839
26180,781,826
26185,779,833
26190,775,830
26195,761,827
26200,762,830
26205,763,823
26210,757,825
26215,757,821
26220,754,818
26225,753,819
26230,743,814
26235,741,808
26240,763,811
26245,750,808
26250,749,802
26255,766,801
26260,768,800
26265,772,792
26270,770,790
26275,785,784
26280,792,785
26285,809,783
26290,815,770
26295,823,764
26300,838,759
26305,852,765
26310,853,760
26315,875,747
26320,888,747
26325,902,739
26330,912,741
26335,933,739
26340,941,727
26345,959,725
26350,975,719
26355,989,721
26360,1008,713
26365,1020,711
26370,1024,710
26375,1035,703
26380,1059,706
26385,1064,701
26390,1076,702
26395,1092,694
26400,1106,696
26405,1113,691
26410,1122,696
26415,1140,691
26420,1146,700
26425,1161,690
26430,1156,691
26435,1160,694
26440,1169,702
26445,1174,696
26450,1175,703
26455,1176,705
26460,1183,704
26465,1180,708
26470,1184,716
26475,1193,714
26480,1190,723
26485,1186,729
26490,1179,734
26495,1178,744
26500,1189,748
26505,1182,749
26510,1182,756
26515,1176,760
26520,1163,767
26525,1170,773
26530,1171,776
26535,1169,783
26540,1167,794
26545,1160,803
26550,1151,803
26555,1147,810
26560,1140,808
26565,1144,823
26570,1143,827
26575,1139,829
26580,1134,832
26585,1130,842
26590,1119,841
26595,1114,846
26600,1114,855
26605,1104,855
26610,1113,867
26615,1107,864
26620,1112,858
26625,1104,878
26630,1103,872
26635,1093,872
26640,1093,877
26645,1084,880
26650,1098,881
26655,1080,880
26660,1079,878
26665,1075,875
26670,1084,880
26675,1077,880
26680,1067,878
26685,1077,878
26690,1069,880
26695,1062,879
26700,1066,874
26705,1045,868
26710,1053,875
26715,1031,869
26720,1028,869
26725,1037,871
26730,1020,863
26735,1011,860
26740,1008,859
26745,1003,863
26750,991,864
26755,986,860
26760,970,861
26765,968,854
26770,950,851
26775,953,855
26780,936,855
26785,930,856
26790,914,847
26795,906,847
26800,894,847
26805,885,849
26810,877,839
26815,867,848
26820,854,840
26825,836,843
26830,821,844
26835,831,836
26840,815,839
26845,803,835
26850,799,842
26855,789,829
26860,785,833
26865,778,831
26870,768,832
26875,769,827
26880,758,828
26885,758,827
26890,756,824
26895,752,822
26900,747,819
26905,750,817
26910,747,807
26915,749,810
26920,748,806
26925,758,808
26930,749,804
26935,762,795
26940,773,789
26945,773,790
26950,782,788
26955,802,787
26960,795,780
26965,804,773
26970,832,771
26975,834,772
26980,853,761
26985,860,754
26990,869,753
26995,874,746
27000,897,745
27005,915,742
27010,925,733
27015,945,733
27020,957,729
27025,969,728
27030,982,722
27035,991,717
27040,1004,709
27045,1033,711
27050,1046,703
27055,1049,702
27060,1055,698
27065,1075,694
27070,1092,697
27075,1095,694
27080,1108,693
27085,1117,696
27090,1130,695
27095,1141,684
27100,1140,694
27105,1153,695
27110,1152,694
27115,1164,698
27120,1172,699
27125,1178,704
27130,1187,702
27135,1179,706
27140,1179,716
27145,1180,717
27150,1192,722
27155,1189,722
27160,1191,721
27165,1185,741
27170,1184,740
27175,1178,743
27180,1187,746
27185,1178,755
27190,1173,763
27195,1181,764
27200,1172,766
27205,1174,777
27210,1164,790
27215,1159,789
27220,1156,795
27225,1154,800
27230,1152,809
27235,1150,815
27240,1142,819
27245,1141,826
27250,1137,826
27255,1133,831
27260,1136,839
27265,1119,842
27270,1125,848
27275,1102,851
27280,1108,859
27285,1110,865
27290,1106,862
27295,1100,865
27300,1108,866
27305,1096,871
27310,1094,871
27315,1096,879
27320,1086,874
27325,1092,875
27330,1097,878
27335,1084,885
27340,1082,884
27345,1079,884
27350,1076,877
27355,1068,879
27360,1066,880
27365,1071,880
27370,1058,875
27375,1054,877
27380,1055,874
27385,1040,868
27390,1047,876
27395,1038,869
27400,1025,869
27405,1024,869
27410,1021,866
27415,1011,870
27420,1012,866
27425,1003,858
27430,989,858
27435,971,860
27440,974,856
27445,960,853
27450,949,856
27455,948,853
27460,927,850
27465,912,851
27470,906,844
27475,894,844
27480,885,843
27485,882,839
27490,876,846
27495,858,842
27500,846,838
27505,835,834
27510,824,842
27515,810,833
27520,800,834
27525,803,839
27530,791,832
27535,785,829
27540,774,826
27545,774,834
27550,766,828
27555,756,827
27560,759,827
27565,750,822
27570,753,821
27575,752,816
27580,745,813
27585,749,816
27590,746,811
27595,751,811
27600,752,803
27605,748,804
27610,764,799
27615,771,794
27620,772,790
27625,787,785
27630,784,784
27635,792,785
27640,815,778
27645,814,769
27650,831,768
27655,848,763
27660,863,761
27665,871,753
27670,886,751
27675,895,751
27680,918,741
27685,921,739
27690,942,731
27695,945,729
27700,967,722
27705,991,718
27710,994,719
27715,1006,713
27720,1025,709
27725,1031,706
27730,1046,703
27735,1067,706
27740,1066,699
27745,1088,695
27750,1103,694
27755,1100,695
27760,1121,689
27765,1130,696
27770,1136,687
27775,1140,691
27780,1155,691
27785,1157,695
27790,1162,697
27795,1166,700
27800,1174,704
27805,1179,702
27810,1189,708
27815,1186,712
27820,1182,711
27825,1184,714
27830,1184,721
27835,1190,728
27840,1188,731
27845,1191,734
27850,1183,745
27855,1177,744
27860,1188,755
27865,1178,759
27870,1176,764
27875,1170,767
27880,1168,775
27885,1160,784
27890,1163,786
27895,1159,794
27900,1153,800
27905,1146,801
27910,1154,808
27915,1147,819
27920,1139,821
27925,1136,832
27930,1127,829
27935,1122,836
27940,1128,842
27945,1104,851
27950,1120,853
27955,1113,852
27960,1106,860
27965,1111,863
27970,1098,871
27975,1109,867
27980,1101,866
27985,1098,871
27990,1097,875
27995,1093,877
28000,1080,879
28005,1083,873
28010,1083,876
28015,1076,876
28020,1075,882
28025,1074,879
28030,1075,883
28035,1069,877
28040,1073,878
28045,1064,878
28050,1067,880
28055,1057,879
28060,1046,877
28065,1045,873
28070,1036,865
28075,1033,867
28080,1029,868
28085,1018,867
28090,1015,862
28095,1010,865
28100,997,862
28105,991,853
28110,972,853
28115,966,851
28120,954,855
28125,948,853
28130,939,849
28135,941,847
28140,923,851
28145,910,844
28150,901,846
28155,893,849
28160,870,848
28165,866,842
28170,866,836
28175,849,841
28180,831,840
28185,832,835
28190,817,835
28195,810,836
28200,801,833
28205,796,828
28210,783,838
28215,769,829
28220,766,830
28225,775,828
28230,756,825
28235,749,831
28240,748,821
28245,742,822
28250,751,821
28255,738,819
28260,744,813
28265,745,811
28270,749,808
28275,759,803
28280,757,804
28285,761,799
28290,768,798
28295,759,793
28300,783,790
28305,786,781
28310,797,783
28315,807,780
28320,815,773
28325,837,769
28330,835,765
28335,858,756
28340,864,753
28345,877,747
28350,890,739
28355,896,742
28360,918,741
28365,931,739
28370,950,728
28375,960,723
28380,976,722
28385,989,720
28390,1008,717
28395,1014,709
28400,1027,712
28405,1042,702
28410,1060,700
28415,1062,703
28420,1091,700
28425,1098,696
28430,1115,695
28435,1117,695
28440,1126,697
28445,1132,694
28450,1144,696
28455,1154,691
28460,1164,693
28465,1161,700
28470,1175,698
28475,1168,700
28480,1170,709
28485,1180,706
28490,1181,708
28495,1180,717
28500,1191,718
28505,1181,719
28510,1185,731
28515,1184,728
28520,1186,733
28525,1196,742
28530,1182,742
28535,1180,748
28540,1170,752
28545,1175,763
28550,1169,778
28555,1174,770
28560,1170,780
28565,1170,787
28570,1166,796
28575,1152,794
28580,1148,808
28585,1149,814
28590,1136,817
28595,1138,822
28600,1139,829
28605,1120,831
28610,1129,837
28615,1133,841
28620,1117,846
28625,1121,851
28630,1122,851
28635,1106,858
28640,1119,865
28645,1100,868
28650,1102,872
28655,1104,871
28660,1099,867
28665,1090,878
28670,1091,883
28675,1092,879
28680,1087,875
28685,1088,878
28690,1079,873
28695,1088,883
28700,1073,881
28705,1072,880
28710,1068,882
28715,1061,873
28720,1062,871
28725,1059,876
28730,1053,877
28735,1050,874
28740,1043,875
28745,1036,872
28750,1036,871
28755,1032,865
28760,1026,867
28765,1016,858
28770,1007,863
28775,1006,859
28780,983,860
28785,979,860
28790,976,862
28795,964,850
28800,954,857
28805,934,854
28810,937,847
28815,921,846
28820,906,846
28825,903,846
28830,904,845
28835,880,843
28840,880,842
28845,863,842
28850,851,838
28855,839,840
28860,835,840
28865,823,844
28870,810,839
28875,793,834
28880,787,836
28885,779,828
28890,782,827
28895,770,832
28900,762,828
28905,763,832
28910,750,826
28915,753,819
28920,744,827
28925,753,813
28930,746,819
28935,743,813
28940,741,812
28945,751,809
28950,749,810
28955,760,805
28960,773,802
28965,766,795
28970,775,788
28975,790,794
28980,791,785
28985,794,782
28990,800,776
28995,817,773
29000,821,771
29005,841,764
29010,855,761
29015,853,757
29020,875,749
29025,890,746
29030,899,741
29035,912,740
29040,931,733
29045,941,728
29050,950,730
29055,972,720
29060,981,718
29065,1003,715
29070,1015,712
29075,1031,708
29080,1040,706
29085,1053,705
29090,1074,697
29095,1079,696
29100,1080,701
29105,1098,693
29110,1103,697
29115,1117,697
29120,1143,700
29125,1132,697
29130,1141,695
29135,1150,693
29140,1168,698
29145,1158,700
29150,1175,700
29155,1177,700
29160,1176,702
29165,1178,706
29170,1188,712
29175,1190,715
29180,1190,719
29185,1186,724
29190,1185,723
29195,1182,735
29200,1182,738
29205,1186,746
29210,1179,748
29215,1168,755
29220,1183,761
29225,1174,766
29230,1176,779
29235,1172,775
29240,1162,790
29245,1164,796
29250,1159,795
29255,1150,804
29260,1147,804
29265,1145,814
29270,1141,819
29275,1143,823
29280,1132,831
29285,1134,832
29290,1126,838
29295,1127,842
29300,1114,850
29305,1118,858
29310,1104,852
29315,1107,864
29320,1112,864
29325,1103,866
29330,1103,868
29335,1102,877
29340,1099,878
29345,1098,872
29350,1092,880
29355,1088,885
29360,1090,883
29365,1077,881
29370,1080,878
29375,1082,877
29380,1073,877
29385,1071,878
29390,1072,874
29395,1065,877
29400,1052,878
29405,1055,878
29410,1053,876
29415,1050,875
29420,1047,869
29425,1029,868
29430,1034,872
29435,1024,867
29440,1015,859
29445,1006,859
29450,993,865
29455,995,861
29460,985,859
29465,971,853
29470,959,857
29475,962,853
29480,953,854
29485,937,849
29490,923,853
29495,918,844
29500,908,844
29505,902,849
29510,878,844
29515,870,840
29520,866,840
29525,859,845
29530,835,839
29535,830,837
29540,818,839
29545,816,839
29550,800,833
29555,798,835
29560,791,830
29565,786,832
29570,784,830
29575,774,821
29580,765,824
29585,758,823
29590,758,823
29595,745,828
29600,748,817
29605,755,817
29610,744,818
29615,748,819
29620,742,809
29625,759,805
29630,757,802
29635,754,806
29640,763,796
29645,775,791
29650,769,789
29655,781,793
29660,791,779
29665,800,781
29670,818,773
29675,826,775
29680,834,762
29685,841,767
29690,865,763
29695,866,753
29700,890,750
29705,903,744
29710,916,737
29715,923,733
29720,943,732
29725,958,725
29730,964,723
29735,981,713
29740,994,709
29745,1010,709
29750,1015,709
29755,1044,698
29760,1053,708
29765,1068,700
29770,1077,698
29775,1081,701
29780,1105,695
29785,1113,692
29790,1115,690
29795,1132,694
29800,1147,695
29805,1134,696
29810,1148,695
29815,1152,693
29820,1170,695
29825,1170,697
29830,1175,699
29835,1183,699
29840,1185,708
29845,1183,715
29850,1186,715
29855,1188,720
29860,1198,721
29865,1192,730
29870,1187,731
29875,1176,739
29880,1185,747
29885,1187,752
29890,1178,756
29895,1180,761
29900,1178,765
29905,1168,775
29910,1169,781
29915,1168,781
29920,1149,792
29925,1162,790
29930,1158,803
29935,1158,810
29940,1141,813
29945,1134,818
29950,1142,820
29955,1132,831
29960,1139,833
29965,1136,840
29970,1120,842
29975,1111,845
29980,1110,855
29985,1105,852
29990,1108,859
29995,1113,869
