timestamp_ms,ir_finger,ir_toe
0,1046,663
5,1050,668
10,1058,667
15,1078,677
20,1080,674
25,1093,685
30,1093,685
35,1102,691
40,1117,700
45,1122,706
50,1128,707
55,1143,709
60,1144,719
65,1154,722
70,1154,723
75,1161,734
80,1166,744
85,1168,747
90,1172,757
95,1180,765
100,1178,767
105,1182,769
110,1174,784
115,1191,787
120,1188,797
125,1184,802
130,1191,805
135,1196,812
140,1188,819
145,1181,829
150,1185,825
155,1187,836
160,1185,842
165,1176,850
170,1187,856
175,1177,859
180,1172,867
185,1179,868
190,1165,872
195,1168,873
200,1170,878
205,1162,888
210,1160,885
215,1163,890
220,1155,895
225,1157,894
230,1161,904
235,1153,899
240,1142,906
245,1140,905
250,1138,910
255,1132,906
260,1131,906
265,1130,906
270,1123,909
275,1121,913
280,1123,904
285,1104,911
290,1115,915
295,1111,907
300,1107,908
305,1100,904
310,1105,905
315,1105,909
320,1090,903
325,1099,905
330,1093,904
335,1096,898
340,1097,903
345,1093,898
350,1088,894
355,1085,896
360,1078,893
365,1087,888
370,1084,897
375,1074,887
380,1079,880
385,1064,877
390,1078,883
395,1077,880
400,1071,878
405,1056,875
410,1059,872
415,1057,870
420,1045,867
425,1052,868
430,1034,870
435,1050,866
440,1033,866
445,1036,867
450,1023,862
455,1018,864
460,1021,862
465,1003,856
470,1005,852
475,993,852
480,990,857
485,981,853
490,992,855
495,972,848
500,960,852
505,957,844
510,953,848
515,938,846
520,936,843
525,927,846
530,918,848
535,904,845
540,903,838
545,892,839
550,881,839
555,881,831
560,874,833
565,856,833
570,852,827
575,846,830
580,839,816
585,829,821
590,812,819
595,814,816
600,803,813
605,805,805
610,794,807
615,782,800
620,785,800
625,775,798
630,767,787
635,767,785
640,760,780
645,766,778
650,750,781
655,760,767
660,752,767
665,749,760
670,739,757
675,747,753
680,742,747
685,751,748
690,746,738
695,750,735
700,748,729
705,756,718
710,758,720
715,766,710
720,771,710
725,766,705
730,777,701
735,781,691
740,784,686
745,800,684
750,796,679
755,806,676
760,816,680
765,827,670
770,840,665
775,853,663
780,861,662
785,867,662
790,880,659
795,886,657
800,903,656
805,899,656
810,914,652
815,923,651
820,945,651
825,958,652
830,970,648
835,975,658
840,988,654
845,1003,660
850,1014,659
855,1018,661
860,1028,662
865,1031,659
870,1059,663
875,1062,672
880,1076,671
885,1084,673
890,1094,685
895,1091,688
900,1104,695
905,1107,698
910,1124,702
915,1132,705
920,1141,710
925,1145,715
930,1150,720
935,1152,727
940,1167,733
945,1162,739
950,1170,746
955,1172,753
960,1180,761
965,1171,766
970,1188,777
975,1184,780
980,1182,786
985,1183,787
990,1190,800
995,1186,805
1000,1188,815
1004,1195,819
1010,1193,827
1014,1185,831
1020,1191,839
1025,1184,842
1030,1187,852
1035,1185,858
1040,1174,859
1045,1173,865
1050,1183,872
1055,1173,874
1060,1169,878
1065,1157,883
1070,1164,884
1075,1156,891
1080,1163,888
1085,1158,892
1090,1150,897
1095,1152,897
1100,1145,900
1105,1136,907
1110,1129,906
1115,1130,905
1120,1138,909
1125,1123,902
1130,1125,911
1135,1126,909
1140,1125,907
1145,1126,912
1150,1123,910
1155,1108,911
1160,1117,908
1165,1113,910
1170,1099,905
1175,1098,905
1180,1109,907
1185,1106,906
1190,1101,900
1195,1096,903
1200,1094,893
1205,1092,900
1210,1094,893
1215,1097,902
1220,1087,899
1225,1081,890
1230,1076,892
1235,1086,891
1240,1075,889
1245,1078,882
1250,1072,878
1255,1074,878
1260,1072,877
1265,1067,886
1270,1064,872
1275,1054,875
1280,1063,871
1285,1050,873
1290,1044,872
1295,1045,866
1300,1035,864
1305,1034,867
1310,1020,859
1315,1020,863
1320,1023,863
1325,1011,857
1330,1014,857
1335,1006,853
1340,1003,849
1345,995,852
1350,984,854
1355,978,852
1360,967,856
1365,967,851
1370,965,850
1375,950,843
1380,944,846
1385,931,845
1390,931,844
1395,916,842
1400,912,834
1405,896,838
1410,896,846
1415,882,841
1420,875,834
1425,868,834
1430,871,832
1435,850,833
1440,839,829
1445,831,820
1450,831,821
1455,824,818
1460,818,815
1465,821,812
1470,801,806
1475,802,805
1480,789,802
1485,778,798
1490,774,796
1495,762,789
1500,758,789
1505,768,786
1510,752,779
1515,751,780
1520,753,766
1525,751,768
1530,756,763
1535,742,761
1540,756,747
1545,745,746
1550,758,744
1555,754,740
1560,745,733
1565,757,725
1570,756,720
1575,755,716
1580,762,714
1585,774,704
1590,778,712
1595,776,704
1600,784,690
1605,797,688
1610,795,689
1615,807,683
1620,802,682
1625,827,673
1630,824,671
1635,837,667
1640,851,664
1645,848,662
1650,863,660
1655,878,663
1660,883,656
1665,891,655
1670,909,653
1675,916,655
1680,932,656
1685,946,647
1690,942,652
1695,969,651
1700,975,650
1705,977,653
1710,998,653
1715,1003,657
1720,1021,660
1725,1028,664
1730,1040,662
1735,1045,665
1740,1060,674
1745,1072,678
1750,1078,682
1755,1082,685
1760,1098,684
1765,1110,689
1770,1125,692
1775,1123,699
1780,1131,711
1785,1139,709
1790,1137,718
1795,1149,722
1800,1155,727
1805,1164,738
1810,1165,742
1815,1170,749
1820,1170,756
1825,1180,759
1830,1185,766
1835,1182,773
1840,1179,783
1845,1182,786
1850,1176,793
1855,1188,797
1860,1191,809
1865,1179,816
1870,1181,818
1875,1189,826
1880,1184,835
1885,1185,836
1890,1189,839
1895,1184,848
1900,1179,856
1905,1179,857
1910,1171,864
1915,1168,871
1920,1179,874
1925,1164,873
1930,1176,879
1935,1155,884
1940,1154,891
1945,1158,893
1950,1162,892
1955,1142,894
1960,1153,898
1965,1151,900
1970,1147,904
1975,1134,903
1980,1140,906
1985,1130,909
1990,1135,908
1995,1133,910
2000,1124,913
2005,1118,909
2009,1121,908
2015,1108,907
2020,1109,912
2025,1114,905
2029,1100,907
2035,1111,909
2040,1106,898
2045,1101,906
2050,1092,902
2055,1095,905
2060,1098,906
2065,1091,898
2070,1087,896
2075,1089,898
2080,1100,894
2085,1086,891
2090,1079,891
2095,1086,888
2100,1075,888
2105,1082,884
2110,1070,882
2115,1081,882
2120,1075,886
2125,1073,876
2130,1064,878
2135,1066,878
2140,1055,876
2145,1056,876
2150,1052,870
2155,1046,874
2160,1048,871
2165,1046,864
2170,1039,874
2175,1025,862
2180,1033,861
2185,1015,859
2190,1028,858
2195,1004,859
2200,1017,858
2205,992,855
2210,989,854
2215,980,853
2220,977,854
2225,979,849
2230,964,849
2235,963,847
2240,948,853
2245,947,850
2250,934,844
2255,919,842
2260,925,848
2265,911,840
2270,898,846
2275,898,840
2280,882,839
2285,870,834
2290,863,829
2295,856,831
2300,856,828
2305,847,824
2310,840,821
2315,830,818
2320,824,819
2325,812,814
2330,797,816
2335,795,811
2340,790,806
2345,789,801
2350,779,806
2355,786,792
2360,774,796
2365,768,781
2370,769,778
2375,771,780
2380,753,772
2385,759,768
2390,754,766
2395,747,760
2400,741,754
2405,753,752
2410,754,746
2415,750,738
2420,751,738
2425,746,728
2430,753,722
2435,760,721
2440,765,713
2445,758,713
2450,770,708
2455,774,698
2460,770,697
2465,780,693
2470,788,688
2475,795,685
2480,805,685
2485,816,681
2490,819,678
2495,829,667
2500,836,666
2505,859,661
2510,855,659
2515,864,666
2520,872,658
2525,887,663
2530,899,646
2535,908,654
2540,922,655
2545,928,653
2550,942,650
2555,951,653
2560,960,651
2565,970,656
2570,981,656
2575,990,661
2580,1007,660
2585,1005,663
2590,1028,663
2595,1032,656
2600,1052,661
2605,1062,669
2610,1067,670
2615,1079,677
2620,1086,680
2625,1102,685
2630,1104,697
2635,1109,693
2640,1127,703
2645,1128,707
2650,1141,707
2655,1137,722
2660,1150,724
2665,1155,730
2670,1158,735
2675,1163,736
2680,1164,747
2685,1178,753
2690,1182,764
2695,1187,770
2700,1189,773
2705,1176,778
2710,1176,789
2715,1188,794
2720,1176,804
2725,1196,803
2730,1188,811
2735,1190,820
2740,1186,824
2745,1179,829
2750,1189,832
2755,1177,840
2760,1183,846
2765,1176,849
2770,1182,857
2775,1168,862
2780,1173,868
2785,1170,866
2790,1172,873
2795,1168,879
2800,1168,884
2805,1157,882
2810,1157,892
2815,1151,894
2820,1158,895
2825,1149,894
2830,1153,899
2835,1141,904
2840,1139,904
2845,1133,899
2850,1135,906
2855,1133,912
2860,1121,911
2865,1116,910
2870,1121,910
2875,1118,910
2880,1124,915
2885,1110,911
2890,1121,907
2895,1105,905
2900,1101,906
2905,1104,904
2910,1098,911
2915,1106,900
2920,1094,909
2925,1093,901
2930,1097,903
2935,1090,898
2940,1094,898
2945,1083,895
2950,1089,892
2955,1088,891
2960,1083,895
2965,1076,888
2970,1078,888
2975,1078,882
2980,1081,881
2985,1074,881
2990,1076,884
2995,1064,878
3000,1065,875
3005,1067,875
3010,1052,868
3015,1052,875
3020,1041,870
3025,1045,870
3030,1039,859
3035,1032,861
3040,1032,865
3045,1025,861
3050,1034,861
3055,1016,857
3060,1017,862
3065,1005,856
3070,996,855
3075,985,856
3080,996,857
3085,967,861
3090,974,858
3095,961,851
3100,963,846
3105,940,847
3110,951,854
3115,940,846
3120,921,844
3125,925,839
3130,911,841
3135,910,838
3140,894,840
3145,886,838
3150,870,838
3155,864,832
3160,859,827
3165,858,827
3170,851,830
3175,847,823
3180,831,826
3185,825,819
3190,823,812
3195,809,819
3200,796,812
3205,792,806
3210,770,800
3215,781,799
3220,780,797
3225,773,787
3230,761,789
3235,762,780
3240,752,784
3245,742,778
3250,753,772
3255,750,764
3260,742,768
3265,748,760
3270,739,750
3275,754,746
3280,740,742
3285,745,737
3290,743,736
3295,751,726
3300,759,722
3305,756,720
3310,767,712
3315,767,705
3320,774,702
3325,775,697
3330,788,695
3335,783,686
3340,797,684
3345,803,686
3350,814,677
3355,816,673
3360,832,678
3365,834,665
3370,845,667
3375,845,663
3380,861,659
3385,872,661
3390,885,654
3395,891,653
3400,912,655
3405,921,655
3410,927,652
3415,944,652
3420,956,652
3425,964,653
3430,981,653
3435,985,654
3440,994,656
3445,1001,652
3450,1023,659
3455,1040,656
3460,1034,664
3465,1046,670
3470,1052,672
3475,1075,674
3480,1076,675
3485,1098,685
3490,1089,683
3495,1106,688
3500,1118,695
3505,1120,698
3510,1129,707
3515,1141,709
3520,1155,714
3525,1149,720
3530,1150,730
3535,1160,732
3540,1164,744
3545,1155,746
3550,1171,753
3555,1172,763
3560,1181,761
3565,1175,775
3570,1178,782
3575,1179,784
3580,1185,793
3585,1193,800
3590,1189,798
3595,1191,812
3600,1193,814
3605,1194,828
3610,1192,830
3615,1182,841
3620,1195,841
3625,1172,847
3630,1179,849
3635,1179,855
3640,1167,859
3645,1179,868
3650,1171,870
3655,1165,875
3660,1168,879
3665,1173,886
3670,1159,885
3675,1159,889
3680,1163,893
3685,1156,898
3690,1151,900
3695,1148,893
3700,1134,906
3705,1144,907
3710,1135,910
3715,1131,908
3720,1131,909
3725,1129,912
3730,1131,903
3735,1122,909
3740,1118,909
3745,1113,910
3750,1113,912
3755,1111,911
3760,1111,905
3765,1107,906
3770,1100,911
3775,1094,906
3780,1105,907
3785,1099,900
3790,1090,898
3795,1096,902
3800,1086,899
3805,1089,900
3810,1101,896
3815,1088,897
3820,1077,893
3825,1079,889
3830,1070,881
3835,1086,884
3840,1077,889
3845,1059,883
3850,1081,884
3855,1067,879
3860,1071,884
3865,1068,880
3870,1062,879
3875,1065,872
3880,1049,874
3885,1042,868
3890,1054,878
3895,1038,866
3900,1038,866
3905,1026,864
3910,1024,859
3915,1028,860
3920,1010,862
3925,1020,863
3930,1006,853
3935,1007,855
3940,993,850
3945,992,855
3950,984,853
3955,966,851
3960,964,850
3965,955,845
3970,955,852
3975,943,846
3980,927,841
3985,933,846
3990,918,843
3995,923,842
4000,909,842
4005,886,839
4010,885,834
4014,876,838
4019,872,827
4025,865,833
4030,857,833
4035,846,825
4040,822,822
4045,828,822
4050,817,821
4054,820,817
4059,810,814
4065,797,806
4070,800,806
4075,784,802
4080,782,798
4085,774,799
4090,773,793
4094,761,788
4100,751,781
4105,752,774
4110,752,775
4115,763,767
4120,761,767
4125,756,766
4130,751,758
4135,749,755
4140,741,750
4145,744,737
4150,747,741
4155,747,732
4160,755,731
4165,753,722
4170,747,721
4175,756,716
4180,762,704
4185,771,705
4190,782,704
4195,788,696
4200,791,690
4205,799,684
4210,807,682
4215,802,683
4220,817,675
4225,825,676
4230,840,668
4235,849,673
4240,859,667
4245,870,657
4250,869,661
4255,884,654
4260,897,658
4265,907,653
4270,917,648
4275,934,654
4280,941,656
4285,959,651
4290,964,650
4295,981,654
4300,988,650
4305,997,655
4310,1013,658
4315,1021,661
4320,1031,656
4325,1045,659
4330,1056,666
4335,1059,669
4340,1065,680
4345,1079,677
4350,1088,681
4355,1098,687
4360,1093,692
4365,1120,700
4370,1125,698
4375,1132,705
4380,1138,713
4385,1147,720
4390,1149,726
4395,1155,726
4400,1157,737
4405,1164,739
4410,1170,748
4415,1175,755
4420,1185,755
4425,1177,764
4430,1189,779
4435,1177,783
4440,1189,782
4445,1182,792
4450,1183,800
4455,1195,803
4460,1189,808
4465,1182,818
4470,1185,821
4475,1190,828
4480,1185,835
4485,1188,843
4490,1187,849
4495,1178,850
4500,1171,861
4505,1174,864
4510,1172,868
4515,1176,868
4520,1174,877
4525,1171,879
4530,1169,885
4535,1161,884
4540,1162,890
4545,1160,892
4550,1153,898
4555,1153,904
4560,1144,902
4565,1139,909
4570,1132,901
4575,1135,906
4580,1134,906
4585,1134,905
4590,1124,909
4595,1122,907
4600,1134,910
4605,1112,911
4610,1119,909
4615,1120,910
4620,1105,907
4625,1106,910
4630,1105,908
4635,1107,903
4640,1106,906
4645,1111,902
4650,1105,904
4655,1097,897
4660,1096,899
4665,1096,902
4670,1085,896
4675,1087,900
4680,1093,895
4685,1085,890
4690,1080,890
4695,1087,893
4700,1072,886
4705,1079,887
4710,1074,884
4715,1068,881
4720,1062,879
4725,1070,877
4730,1063,878
4735,1065,876
4740,1057,871
4745,1060,868
4750,1061,866
4755,1047,864
4760,1035,874
4765,1041,872
4770,1025,864
4775,1027,857
4780,1018,866
4785,1017,858
4790,1009,858
4795,1002,855
4800,997,854
4805,1000,853
4810,995,856
4815,981,854
4820,971,854
4825,971,855
4830,966,850
4835,947,849
4840,945,849
4845,931,846
4850,929,846
4855,927,844
4860,913,843
4865,906,837
4870,893,835
4875,885,835
4880,873,828
4885,865,836
4890,861,825
4895,839,827
4900,847,827
4905,841,827
4910,827,824
4915,825,818
4920,825,816
4925,807,810
4930,798,814
4935,807,804
4940,789,803
4945,792,803
4950,776,800
4955,774,789
4960,770,791
4965,769,783
4970,757,780
4975,754,777
4980,760,769
4985,751,763
4990,741,756
4995,741,759
5000,745,753
5005,751,745
5010,751,743
5015,750,740
5020,750,728
5025,752,728
5030,755,726
5035,754,717
5040,760,717
5045,765,711
5050,773,709
5055,772,703
5060,773,696
5065,783,695
5070,802,685
5075,810,680
5080,812,678
5085,815,676
5090,838,672
5095,836,669
5100,856,666
5105,859,662
5110,864,659
5115,877,658
5120,895,657
5125,894,657
5130,910,652
5135,914,649
5140,927,650
5145,938,653
5150,953,653
5155,961,650
5160,986,655
5165,984,657
5170,1000,651
5175,1008,657
5180,1009,660
5185,1023,658
5190,1039,667
5195,1051,671
5200,1062,671
5205,1064,672
5210,1081,681
5215,1091,680
5220,1091,690
5225,1100,691
5230,1117,693
5235,1117,696
5240,1133,705
5245,1136,716
5250,1141,712
5255,1146,716
5260,1150,726
5265,1160,735
5270,1171,740
5275,1161,742
5280,1178,755
5285,1178,758
5290,1180,767
5295,1185,770
5300,1188,781
5305,1187,788
5310,1193,791
5315,1191,790
5320,1191,809
5325,1187,814
5330,1189,818
5335,1187,823
5340,1179,828
5345,1190,834
5350,1175,840
5355,1180,846
5360,1180,847
5365,1176,853
5370,1180,864
5375,1177,866
5380,1174,872
5385,1173,874
5390,1166,883
5395,1160,880
5400,1162,882
5405,1161,889
5410,1151,896
5415,1148,895
5420,1153,900
5425,1134,900
5430,1130,902
5435,1139,911
5440,1139,908
5445,1127,902
5450,1131,911
5455,1129,904
5460,1137,908
5465,1129,904
5470,1128,908
5475,1123,910
5480,1120,908
5485,1104,907
5490,1115,913
5495,1099,907
5500,1102,909
5505,1116,905
5510,1105,907
5515,1101,905
5520,1106,900
5525,1101,901
5530,1091,894
5535,1089,898
5540,1090,902
5545,1092,889
5550,1090,899
5555,1083,891
5560,1095,890
5565,1069,886
5570,1082,881
5575,1068,882
5580,1072,886
5585,1064,876
5590,1073,880
5595,1068,874
5600,1059,873
5605,1057,874
5610,1060,871
5615,1052,868
5620,1047,867
5625,1046,865
5630,1046,869
5635,1043,863
5640,1026,859
5645,1035,863
5650,1019,863
5655,1011,861
5660,1013,851
5665,1005,857
5670,991,856
5675,987,856
5680,971,860
5685,973,854
5690,960,853
5695,947,853
5700,944,844
5705,948,853
5710,923,844
5715,917,847
5720,930,844
5725,911,837
5730,896,841
5735,894,840
5740,884,839
5745,875,834
5750,870,833
5755,858,836
5760,852,829
5765,847,824
5770,838,825
5775,837,817
5780,826,819
5785,816,818
5790,820,815
5795,807,806
5800,793,805
5805,796,805
5810,788,802
5815,781,795
5820,770,792
5825,762,792
5830,769,790
5835,759,781
5840,762,770
5845,751,772
5850,750,770
5855,745,759
5860,745,758
5865,743,756
5870,755,747
5875,759,742
5880,752,740
5885,755,731
5890,749,730
5895,755,720
5900,752,715
5905,763,714
5910,764,711
5915,768,702
5920,778,701
5925,786,699
5930,792,689
5935,803,685
5940,800,684
5945,811,678
5950,824,675
5955,828,672
5960,844,667
5965,846,670
5970,862,663
5975,864,663
5980,871,659
5985,878,662
5990,892,655
5995,903,650
6000,923,655
6005,924,651
6010,942,651
6015,941,650
6020,968,655
6025,964,650
6030,990,653
6035,994,651
6040,1001,655
6045,1017,659
6050,1019,655
6055,1033,660
6060,1037,669
6065,1062,669
6070,1072,674
6075,1080,674
6080,1084,677
6085,1096,683
6090,1108,685
6095,1118,693
6100,1124,697
6105,1134,713
6110,1139,707
6115,1142,721
6120,1150,718
6125,1151,719
6130,1160,734
6135,1162,739
6140,1164,745
6145,1168,753
6150,1174,756
6155,1177,761
6160,1185,771
6165,1183,774
6170,1184,783
6175,1188,793
6180,1182,799
6185,1183,807
6190,1188,813
6195,1195,816
6200,1188,820
6205,1185,830
6210,1185,830
6215,1186,839
6220,1179,850
6225,1167,852
6230,1181,855
6235,1180,861
6240,1185,866
6245,1176,875
6250,1168,873
6255,1167,883
6260,1152,883
6265,1169,892
6270,1157,892
6275,1157,894
6280,1155,899
6285,1152,902
6290,1149,902
6295,1146,905
6300,1135,901
6305,1143,903
6310,1123,904
6315,1123,906
6320,1127,911
6325,1130,910
6330,1125,913
6335,1117,909
6340,1119,911
6345,1105,908
6350,1113,909
6355,1109,907
6360,1104,909
6365,1111,906
6370,1103,909
6375,1105,904
6380,1096,903
6385,1100,904
6390,1096,898
6395,1095,897
6400,1093,898
6405,1082,895
6410,1091,894
6415,1084,891
6420,1083,891
6425,1095,898
6430,1087,885
6435,1086,884
6440,1074,887
6445,1077,878
6450,1068,875
6455,1063,880
6460,1067,877
6465,1068,877
6470,1054,875
6475,1060,869
6480,1059,874
6485,1046,866
6490,1043,867
6495,1034,863
6500,1033,864
6505,1028,872
6510,1022,867
6515,1010,865
6520,1008,860
6525,1005,854
6530,998,856
6535,995,859
6540,987,857
6545,975,852
6550,972,850
6555,970,844
6560,959,851
6565,960,846
6570,946,846
6575,934,854
6580,919,844
6585,919,840
6590,913,838
6595,892,840
6600,891,839
6605,896,839
6610,875,835
6615,874,836
6620,867,833
6625,855,826
6630,837,827
6635,836,822
6640,832,824
6645,825,817
6650,816,817
6655,811,813
6660,807,807
6665,797,803
6670,791,805
6675,784,803
6680,779,797
6685,776,793
6690,765,788
6695,768,789
6700,754,779
6705,753,773
6710,748,774
6715,750,768
6720,754,767
6725,748,760
6730,754,752
6735,746,752
6740,748,744
6745,747,740
6750,746,732
6755,755,729
6760,751,719
6765,752,723
6770,762,719
6775,772,708
6780,775,706
6785,773,701
6790,782,696
6795,783,695
6800,792,685
6805,802,682
6810,804,675
6815,811,675
6820,831,672
6825,839,671
6830,841,664
6835,854,667
6840,871,659
6845,872,656
6850,890,656
6855,897,657
6860,910,656
6865,921,654
6870,928,655
6875,936,653
6880,950,650
6885,947,651
6890,976,652
6895,989,654
6900,998,653
6905,1005,654
6910,1020,655
6915,1027,659
6920,1052,663
6925,1049,669
6930,1053,671
6935,1074,674
6940,1065,681
6945,1087,679
6950,1099,683
6955,1106,691
6960,1110,694
6965,1116,694
6970,1135,703
6975,1142,710
6980,1138,714
6985,1148,722
6990,1151,730
6995,1158,734
7000,1160,734
7005,1169,741
7010,1174,745
7015,1177,760
7020,1172,762
7025,1179,775
7030,1177,781
7035,1180,783
7040,1190,792
7045,1183,797
7050,1184,808
7055,1182,810
7060,1189,821
7065,1188,824
7070,1188,833
7075,1187,836
7080,1188,841
7085,1178,842
7090,1184,855
7095,1180,855
7100,1172,863
7105,1172,866
7110,1171,870
7115,1169,880
7120,1170,881
7125,1163,885
7130,1167,891
7135,1160,890
7140,1155,890
7145,1153,900
7150,1156,900
7155,1140,901
7160,1132,905
7165,1146,902
7170,1130,903
7175,1138,902
7180,1126,909
7185,1131,912
7190,1133,907
7195,1116,909
7200,1118,912
7205,1117,912
7210,1122,911
7215,1112,907
7220,1107,911
7225,1101,905
7230,1108,907
7235,1101,910
7240,1108,902
7245,1089,906
7250,1095,903
7255,1097,904
7260,1091,892
7265,1088,900
7270,1093,896
7275,1096,892
7280,1085,890
7285,1080,889
7290,1078,895
7295,1081,892
7300,1078,884
7305,1074,887
7310,1064,880
7315,1072,882
7320,1066,877
7325,1064,879
7330,1062,870
7335,1060,874
7340,1057,871
7345,1040,867
7350,1036,871
7355,1039,864
7360,1042,867
7365,1031,862
7370,1030,858
7375,1025,863
7380,1017,860
7385,1013,856
7390,1002,861
7395,999,854
7400,995,857
7405,979,858
7410,981,849
7415,977,845
7420,972,853
7425,956,851
7430,948,848
7435,945,850
7440,934,845
7445,934,847
7450,921,841
7455,913,849
7460,904,843
7465,893,833
7470,886,839
7475,881,832
7480,881,835
7485,860,833
7490,860,833
7495,846,827
7500,841,822
7505,819,819
7510,824,823
7515,823,813
7520,804,813
7525,805,813
7530,797,811
7535,777,804
7540,784,802
7545,776,802
7550,779,796
7555,771,789
7560,764,779
7565,762,781
7570,752,773
7575,752,773
7580,753,769
7585,762,765
7590,753,757
7595,749,756
7600,747,747
7605,748,746
7610,749,741
7615,756,733
7620,758,731
7625,754,727
7630,751,715
7635,760,714
7640,767,708
7645,767,702
7650,780,704
7655,784,695
7660,783,693
7665,796,688
7670,802,688
7675,809,681
7680,821,671
7685,826,677
7690,829,667
7695,847,667
7700,858,662
7705,863,659
7710,880,662
7715,888,660
7720,892,653
7725,911,657
7730,912,653
7735,924,654
7740,940,654
7745,950,651
7750,962,648
7755,969,651
7760,989,652
7765,991,658
7770,1004,653
7775,1012,656
7780,1030,664
7785,1030,665
7790,1055,663
7795,1060,665
7800,1057,672
7805,1091,676
7810,1084,680
7815,1098,689
7820,1105,688
7825,1114,695
7830,1128,697
7835,1127,699
7840,1123,716
7845,1141,711
7850,1151,723
7855,1162,728
7860,1159,729
7865,1163,740
7870,1169,747
7875,1172,749
7880,1171,752
7885,1177,766
7890,1187,772
7895,1190,779
7900,1184,782
7905,1187,795
7910,1194,791
7915,1185,804
7920,1188,820
7925,1194,812
7930,1187,821
7935,1190,832
7940,1177,834
7945,1189,840
7950,1188,837
7955,1184,857
7960,1182,855
7965,1180,861
7970,1177,865
7975,1175,868
7980,1171,872
7985,1164,877
7990,1163,886
7995,1162,883
8000,1163,884
8005,1161,893
8010,1149,891
8015,1157,891
8020,1146,903
8025,1139,900
8029,1150,909
8035,1142,910
8039,1129,902
8045,1133,912
8050,1123,907
8055,1133,909
8060,1113,908
8064,1122,908
8070,1120,911
8074,1107,912
8080,1119,909
8085,1123,907
8090,1106,909
8095,1105,904
8100,1101,905
8105,1100,909
8109,1105,903
8115,1099,900
8119,1089,902
8125,1087,896
8130,1098,900
8135,1098,899
8140,1089,890
8145,1077,893
8150,1095,892
8154,1087,888
8160,1079,892
8164,1078,890
8170,1076,884
8175,1069,885
8180,1062,876
8185,1075,879
8189,1064,876
8195,1063,871
8200,1056,865
8205,1054,867
8210,1047,870
8215,1043,870
8220,1039,868
8225,1039,867
8230,1030,870
8235,1031,869
8240,1019,861
8245,1027,854
8250,1004,856
8255,1007,861
8260,995,858
8265,994,854
8270,987,852
8275,984,857
8280,978,856
8285,974,843
8290,956,853
8295,951,849
8300,943,844
8305,941,846
8310,925,847
8315,918,844
8320,913,838
8325,910,841
8330,897,840
8335,883,836
8340,879,835
8345,869,829
8350,856,833
8355,857,833
8360,848,830
8365,842,820
8370,834,819
8375,820,820
8380,814,815
8385,814,821
8390,800,804
8395,790,805
8400,793,805
8405,780,801
8410,770,792
8415,777,794
8420,770,787
8425,762,782
8430,761,781
8435,754,774
8440,752,773
8445,760,768
8450,751,763
8455,750,755
8460,747,764
8465,760,750
8470,753,743
8475,758,740
8480,754,731
8485,755,728
8490,757,727
8495,757,717
8500,761,716
8505,767,708
8510,767,706
8515,783,705
8520,779,700
8525,785,692
8530,788,685
8535,803,675
8540,808,686
8545,812,674
8550,818,671
8555,837,670
8560,846,665
8565,848,661
8570,870,664
8575,870,661
8580,878,657
8585,897,659
8590,896,657
8595,912,652
8600,934,654
8605,944,650
8610,953,656
8615,964,655
8620,961,651
8625,984,653
8630,989,653
8635,1006,654
8640,1016,658
8645,1024,662
8650,1043,663
8655,1051,666
8660,1043,665
8665,1066,671
8670,1079,678
8675,1089,681
8680,1089,688
8685,1105,689
8690,1111,693
8695,1111,699
8700,1127,699
8705,1151,704
8710,1140,721
8715,1146,721
8720,1146,727
8725,1151,733
8730,1165,737
8735,1169,743
8740,1172,749
8745,1162,758
8750,1187,765
8755,1185,774
8760,1188,773
8765,1183,785
8770,1189,789
8775,1188,792
8780,1183,799
8785,1182,808
8790,1192,814
8795,1187,827
8800,1184,826
8805,1179,838
8810,1182,840
8815,1186,844
8820,1180,851
8825,1178,855
8830,1184,863
8835,1166,865
8840,1168,870
8845,1177,871
8850,1167,877
8855,1166,883
8860,1163,889
8865,1156,889
8870,1159,892
8875,1162,901
8880,1142,904
8885,1145,899
8890,1142,905
8895,1136,907
8900,1138,904
8905,1140,907
8910,1123,911
8915,1126,910
8920,1116,909
8925,1124,905
8930,1119,914
8935,1110,915
8940,1109,910
8945,1124,911
8950,1112,909
8955,1112,907
8960,1111,903
8965,1102,905
8970,1095,896
8975,1105,901
8980,1096,899
8985,1089,897
8990,1104,901
8995,1093,897
9000,1088,894
9005,1094,896
9010,1080,892
9015,1087,891
9020,1086,888
9025,1073,887
9030,1075,891
9035,1078,886
9040,1078,881
9045,1069,877
9050,1067,873
9055,1064,871
9060,1064,878
9065,1057,875
9070,1052,872
9075,1043,874
9080,1053,867
9085,1046,865
9090,1048,867
9095,1031,871
9100,1027,862
9105,1025,862
9110,1014,868
9115,1014,859
9120,1013,858
9125,1008,858
9130,993,854
9135,985,853
9140,978,854
9145,973,851
9150,975,848
9155,965,847
9160,958,852
9165,949,846
9170,939,849
9175,931,843
9180,921,844
9185,914,843
9190,907,841
9195,886,841
9200,884,836
9205,883,840
9210,876,831
9215,870,829
9220,853,833
9225,843,825
9230,837,827
9235,830,821
9240,824,821
9245,819,818
9250,815,816
9255,803,812
9260,795,806
9265,779,801
9270,791,799
9275,781,799
9280,775,793
9285,763,785
9290,777,788
9295,755,785
9300,760,775
9305,757,777
9310,751,768
9315,751,761
9320,755,756
9325,748,750
9330,751,745
9335,757,743
9340,746,741
9345,753,734
9350,751,731
9355,763,719
9360,755,713
9365,766,715
9370,770,703
9375,783,705
9380,784,700
9385,780,697
9390,787,695
9395,795,684
9400,809,688
9405,812,681
9410,806,675
9415,825,676
9420,830,668
9425,839,663
9430,850,660
9435,866,663
9440,878,663
9445,883,655
9450,893,651
9455,906,660
9460,917,657
9465,927,654
9470,935,646
9475,954,648
9480,955,655
9485,969,654
9490,987,655
9495,995,655
9500,1007,663
9505,1017,657
9510,1035,664
9515,1026,665
9520,1045,668
9525,1063,668
9530,1063,669
9535,1076,674
9540,1081,689
9545,1091,682
9550,1104,688
9555,1113,687
9560,1115,699
9565,1120,709
9570,1145,706
9575,1133,717
9580,1141,716
9585,1147,725
9590,1161,732
9595,1172,743
9600,1170,745
9605,1171,751
9610,1175,757
9615,1176,766
9620,1178,772
9625,1184,776
9630,1193,782
9635,1192,794
9640,1182,801
9645,1189,806
9650,1182,807
9655,1185,815
9660,1182,821
9665,1189,830
9670,1197,834
9675,1178,838
9680,1185,839
9685,1189,853
9690,1177,860
9695,1172,860
9700,1176,862
9705,1178,872
9710,1172,872
9715,1161,879
9720,1165,882
9725,1162,886
9730,1155,888
9735,1159,893
9740,1153,887
9745,1152,900
9750,1156,902
9755,1143,902
9760,1138,906
9765,1136,905
9770,1145,902
9775,1136,903
9780,1125,905
9785,1127,913
9790,1127,913
9795,1127,912
9800,1124,906
9805,1119,907
9810,1110,913
9815,1111,909
9820,1099,905
9825,1103,910
9830,1099,908
9835,1101,903
9840,1110,904
9845,1097,900
9850,1094,902
9855,1091,898
9860,1091,897
9865,1089,895
9870,1093,896
9875,1088,888
9880,1084,889
9885,1080,887
9890,1076,890
9895,1077,886
9900,1072,881
9905,1073,886
9910,1071,875
9915,1068,879
9920,1059,873
9925,1058,874
9930,1055,868
9935,1066,868
9940,1045,873
9945,1045,868
9950,1044,869
9955,1036,866
9960,1037,865
9965,1032,864
9970,1018,859
9975,1012,858
9980,1017,862
9985,1009,857
9990,1004,857
9995,998,855
10000,1000,857
10005,979,853
10010,973,853
10015,970,848
10020,961,852
10025,948,852
10030,939,850
10035,941,848
10040,923,846
10045,917,841
10050,917,841
10055,911,842
10060,898,841
10065,887,838
10070,878,839
10075,873,830
10080,866,833
10085,859,826
10090,845,821
10095,841,823
10100,837,821
10105,817,821
10110,825,818
10115,806,816
10120,805,806
10125,798,808
10130,798,801
10135,787,803
10140,779,800
10145,782,792
10150,768,786
10155,764,785
10160,757,782
10165,757,781
10170,759,779
10175,750,766
10180,754,767
10185,749,760
10190,746,752
10195,744,751
10200,743,742
10205,746,739
10210,758,741
10215,754,731
10220,751,724
10225,758,723
10230,753,717
10235,762,712
10240,769,708
10245,773,703
10250,786,697
10255,790,697
10260,794,694
10265,813,685
10270,812,686
10275,813,677
10280,826,679
10285,836,669
10290,843,666
10295,851,663
10300,858,662
10305,878,661
10310,883,660
10315,892,650
10320,915,658
10325,913,652
10330,924,651
10335,936,652
10340,948,652
10345,957,649
10350,974,647
10355,977,652
10360,992,652
10365,1000,655
10370,1018,658
10375,1020,663
10380,1036,670
10385,1050,665
10390,1048,667
10395,1056,668
10400,1077,673
10405,1081,679
10410,1098,685
10415,1100,689
10420,1108,698
10425,1119,692
10430,1124,698
10435,1130,707
10440,1134,714
10445,1141,716
10450,1155,726
10455,1146,730
10460,1163,736
10465,1164,746
10470,1173,750
10475,1179,756
10480,1174,761
10485,1188,771
10490,1181,776
10495,1189,778
10500,1179,787
10505,1183,798
10510,1185,800
10515,1182,807
10520,1187,815
10525,1193,821
10530,1182,830
10535,1189,834
10540,1190,836
10545,1182,845
10550,1177,850
10555,1181,854
10560,1174,858
10565,1174,864
10570,1177,867
10575,1170,878
10580,1162,882
10585,1154,882
10590,1152,888
10595,1155,888
10600,1165,892
10605,1160,895
10610,1136,899
10615,1146,897
10620,1139,901
10625,1146,898
10630,1140,901
10635,1134,904
10640,1130,908
10645,1128,902
10650,1131,908
10655,1128,909
10660,1126,911
10665,1113,907
10670,1111,907
10675,1112,905
10680,1112,907
10685,1110,910
10690,1113,912
10695,1109,906
10700,1104,906
10705,1095,904
10710,1097,905
10715,1086,905
10720,1098,898
10725,1096,901
10730,1092,894
10735,1086,896
10740,1089,889
10745,1086,888
10750,1085,892
10755,1077,886
10760,1078,883
10765,1066,881
10770,1067,882
10775,1069,876
10780,1075,874
10785,1062,877
10790,1064,874
10795,1059,869
10800,1052,873
10805,1046,871
10810,1052,869
10815,1046,866
10820,1038,867
10825,1045,865
10830,1031,861
10835,1020,866
10840,1017,865
10845,1016,860
10850,1004,861
10855,999,861
10860,999,856
10865,987,851
10870,976,854
10875,980,855
10880,968,854
10885,965,850
10890,958,852
10895,954,848
10900,943,847
10905,929,844
10910,923,845
10915,921,846
10920,916,841
10925,896,844
10930,889,833
10935,882,836
10940,872,832
10945,861,833
10950,861,835
10955,848,826
10960,838,826
10965,838,824
10970,821,820
10975,821,821
10980,809,813
10985,808,821
10990,803,804
10995,793,806
11000,785,803
11005,781,797
11010,773,790
11015,765,791
11020,759,783
11025,763,779
11030,755,780
11035,752,777
11040,758,764
11045,751,764
11050,750,759
11055,755,749
11060,749,753
11065,752,742
11070,747,744
11075,758,733
11080,742,734
11085,756,726
11090,758,722
11095,759,717
11100,763,709
11105,768,708
11110,776,703
11115,771,690
11120,787,692
11125,792,691
11130,809,684
11135,812,683
11140,821,677
11145,830,675
11150,831,673
11155,842,663
11160,852,668
11165,866,662
11170,867,657
11175,882,662
11180,901,656
11185,904,654
11190,908,653
11195,927,655
11200,948,653
11205,939,660
11210,954,649
11215,969,652
11220,980,660
11225,993,660
11230,1005,651
11235,1008,659
11240,1018,658
11245,1035,665
11250,1044,664
11255,1062,668
11260,1066,670
11265,1075,675
11270,1090,676
11275,1089,681
11280,1105,687
11285,1112,692
11290,1107,696
11295,1127,704
11300,1120,709
11305,1134,706
11310,1143,721
11315,1150,725
11320,1157,731
11325,1159,737
11330,1159,747
11335,1177,752
11340,1178,758
11345,1170,759
11350,1174,766
11355,1181,777
11360,1185,791
11365,1199,788
11370,1194,795
11375,1189,799
11380,1188,811
11385,1185,820
11390,1187,823
11395,1182,830
11400,1187,835
11405,1188,836
11410,1184,846
11415,1178,851
11420,1179,854
11425,1187,860
11430,1173,869
11435,1178,872
11440,1173,877
11445,1170,875
11450,1170,881
11455,1164,883
11460,1161,888
11465,1152,895
11470,1157,891
11475,1157,892
11480,1148,901
11485,1139,903
11490,1149,904
11495,1130,903
11500,1135,908
11505,1135,910
11510,1129,907
11515,1128,910
11520,1114,909
11525,1116,907
11530,1119,908
11535,1115,905
11540,1115,909
11545,1115,908
11550,1103,914
11555,1104,908
11560,1099,907
11565,1110,907
11570,1112,905
11575,1093,899
11580,1090,902
11585,1097,907
11590,1095,898
11595,1082,900
11600,1090,894
11605,1096,895
11610,1087,891
11615,1084,886
11620,1082,889
11625,1080,887
11630,1074,882
11635,1067,886
11640,1077,882
11645,1067,877
11650,1064,879
11655,1060,882
11660,1062,873
11665,1050,863
11670,1054,872
11675,1055,871
11680,1042,876
11685,1047,866
11690,1035,865
11695,1040,866
11700,1022,863
11705,1027,863
11710,1009,862
11715,1014,855
11720,1011,856
11725,1002,857
11730,989,858
11735,986,850
11740,977,853
11745,977,845
11750,967,847
11755,962,852
11760,942,842
11765,936,846
11770,937,846
11775,925,849
11780,911,841
11785,915,843
11790,892,843
11795,893,833
11800,883,835
11805,872,829
11810,868,831
11815,857,828
11820,855,829
11825,834,827
11830,834,823
11835,828,826
11840,818,813
11845,809,812
11850,802,812
11855,794,808
11860,786,808
11865,785,801
11870,785,801
11875,773,794
11880,762,785
11885,762,786
11890,757,780
11895,764,773
11900,759,780
11905,758,767
11910,757,762
11915,753,762
11920,732,753
11925,754,744
11930,754,745
11935,750,738
11940,743,732
11945,746,727
11950,755,721
11955,749,718
11960,759,717
11965,772,707
11970,766,706
11975,776,701
11980,770,696
11985,781,696
11990,800,694
11995,813,686
12000,806,680
12005,821,670
12010,820,677
12015,829,671
12020,845,667
12025,850,665
12030,856,663
12035,868,656
12040,879,657
12045,888,657
12050,906,658
12055,918,653
12060,921,650
12065,940,650
12070,949,650
12075,962,650
12080,971,653
12085,984,650
12090,983,652
12095,1000,663
12100,1021,662
12105,1022,661
12110,1040,661
12115,1049,665
12120,1058,667
12125,1065,672
12130,1076,680
12135,1084,685
12140,1096,685
12145,1099,683
12150,1110,686
12155,1122,697
12160,1131,705
12165,1127,711
12170,1139,712
12175,1141,717
12180,1152,723
12185,1154,728
12190,1159,738
12195,1166,740
12200,1175,747
12205,1179,758
12210,1186,759
12215,1174,769
12220,1185,773
12225,1187,784
12230,1183,787
12235,1184,798
12240,1183,803
12245,1186,804
12250,1185,813
12255,1189,820
12260,1187,833
12265,1186,829
12270,1182,835
12275,1181,840
12280,1180,853
12285,1180,858
12290,1179,860
12295,1178,864
12300,1180,868
12305,1175,877
12310,1164,875
12315,1156,883
12320,1161,885
12325,1162,891
12330,1155,893
12335,1153,892
12340,1155,898
12345,1146,901
12350,1133,908
12355,1148,901
12360,1143,903
12365,1131,907
12370,1132,902
12375,1127,908
12380,1127,905
12385,1129,904
12390,1116,909
12395,1124,911
12400,1117,911
12405,1115,912
12410,1109,914
12415,1095,907
12420,1105,909
12425,1100,904
12430,1105,902
12435,1099,904
12440,1103,905
12445,1096,902
12450,1100,897
12455,1095,900
12460,1084,889
12465,1090,893
12470,1087,894
12475,1087,891
12480,1079,887
12485,1074,884
12490,1072,890
12495,1076,884
12500,1073,879
12505,1066,876
12510,1065,883
12515,1066,879
12520,1063,875
12525,1057,874
12530,1052,874
12535,1050,868
12540,1046,862
12545,1040,866
12550,1041,872
12555,1030,866
12560,1029,860
12565,1021,864
12570,1027,858
12575,1015,865
12580,1020,859
12585,1010,864
12590,999,853
12595,987,854
12600,985,856
12605,973,855
12610,968,851
12615,962,850
12620,953,846
12625,948,849
12630,944,846
12635,933,849
12640,917,845
12645,928,844
12650,912,842
12655,901,835
12660,891,833
12665,882,836
12670,876,835
12675,854,830
12680,851,826
12685,856,830
12690,838,826
12695,827,829
12700,826,827
12705,812,821
12710,819,812
12715,813,812
12720,802,808
12725,788,810
12730,793,797
12735,777,797
12740,775,794
12745,772,787
12750,769,788
12755,766,784
12760,760,778
12765,751,773
12770,754,771
12775,743,769
12780,750,758
12785,755,754
12790,750,749
12795,758,741
12800,748,740
12805,743,740
12810,752,723
12815,759,727
12820,755,724
12825,759,714
12830,763,716
12835,766,707
12840,768,702
12845,801,697
12850,779,695
12855,790,686
12860,790,681
12865,807,683
12870,817,676
12875,829,670
12880,831,673
12885,846,669
12890,851,664
12895,849,665
12900,878,656
12905,880,651
12910,896,655
12915,902,652
12920,912,648
12925,931,654
12930,938,658
12935,941,654
12940,959,654
12945,966,651
12950,985,654
12955,981,651
12960,992,654
12965,1021,654
12970,1024,657
12975,1040,661
12980,1039,671
12985,1050,663
12990,1075,668
12995,1068,671
13000,1092,678
13005,1092,679
13010,1100,684
13015,1110,692
13020,1110,696
13025,1121,711
13030,1133,708
13035,1141,718
13040,1145,716
13045,1152,724
13050,1156,727
13055,1157,737
13060,1167,737
13065,1171,747
13070,1172,752
13075,1183,770
13080,1178,768
13085,1183,772
13090,1177,788
13095,1187,787
13100,1192,794
13105,1184,806
13110,1182,803
13115,1186,812
13120,1179,819
13125,1189,823
13130,1186,837
13135,1185,840
13140,1181,845
13145,1177,854
13150,1188,850
13155,1185,864
13160,1169,861
13165,1174,870
13170,1169,875
13175,1170,883
13180,1161,884
13185,1157,883
13190,1160,887
13195,1158,894
13200,1161,893
13205,1156,898
13210,1147,902
13215,1149,900
13220,1143,908
13225,1141,908
13230,1131,905
13235,1133,908
13240,1128,906
13245,1119,906
13250,1131,908
13255,1122,909
13260,1122,908
13265,1109,903
13270,1113,912
13275,1115,914
13280,1113,908
13285,1101,905
13290,1103,905
13295,1101,910
13300,1114,907
13305,1105,905
13310,1101,899
13315,1087,904
13320,1089,899
13325,1090,896
13330,1093,895
13335,1084,894
13340,1088,891
13345,1083,882
13350,1085,889
13355,1080,885
13360,1083,882
13365,1077,883
13370,1075,882
13375,1071,879
13380,1066,875
13385,1060,879
13390,1056,875
13395,1054,870
13400,1049,868
13405,1053,872
13410,1049,867
13415,1038,862
13420,1035,861
13425,1034,861
13430,1021,859
13435,1024,855
13440,1012,859
13445,1005,858
13450,1004,852
13455,997,858
13460,989,856
13465,979,855
13470,977,852
13475,970,850
13480,959,849
13485,953,849
13490,948,853
13495,930,846
13500,932,848
13505,928,841
13510,922,842
13515,912,840
13520,906,844
13525,889,833
13530,887,837
13535,875,834
13540,867,834
13545,863,829
13550,847,825
13555,848,825
13560,836,824
13565,828,824
13570,822,819
13575,821,811
13580,809,815
13585,801,811
13590,790,803
13595,791,804
13600,778,791
13605,777,792
13610,764,793
13615,770,785
13620,756,781
13625,760,780
13630,755,772
13635,754,773
13640,750,767
13645,748,762
13650,748,749
13655,744,754
13660,751,745
13665,747,738
13670,754,737
13675,745,727
13680,747,728
13685,754,718
13690,757,716
13695,762,712
13700,762,707
13705,777,702
13710,776,697
13715,785,686
13720,800,687
13725,798,681
13730,807,683
13735,800,672
13740,836,674
13745,827,668
13750,836,670
13755,846,662
13760,856,663
13765,871,658
13770,873,660
13775,889,653
13780,908,661
13785,921,656
13790,924,653
13795,921,650
13800,948,662
13805,953,650
13810,972,651
13815,981,655
13820,989,660
13825,1002,653
13830,1013,657
13835,1022,658
13840,1032,659
13845,1044,666
13850,1055,673
13855,1075,673
13860,1066,675
13865,1096,681
13870,1085,685
13875,1103,691
13880,1108,694
13885,1118,691
13890,1129,696
13895,1125,709
13900,1140,710
13905,1133,715
13910,1152,723
13915,1159,726
13920,1151,736
13925,1170,746
13930,1173,740
13935,1175,751
13940,1172,759
13945,1174,770
13950,1182,776
13955,1185,782
13960,1193,789
13965,1184,792
13970,1192,804
13975,1192,810
13980,1190,809
13985,1193,821
13990,1194,826
13995,1189,831
14000,1187,833
14005,1189,840
14010,1184,852
14015,1176,852
14020,1173,859
14025,1170,861
14030,1177,870
14035,1177,869
14040,1175,877
14045,1170,884
14050,1151,885
14055,1160,890
14060,1151,891
14065,1150,894
14070,1161,900
14075,1147,899
14080,1139,899
14085,1139,905
14090,1134,905
14095,1127,909
14100,1133,907
14105,1133,910
14110,1124,908
14115,1124,910
14120,1121,905
14125,1123,911
14130,1123,912
14135,1116,906
14140,1112,914
14145,1112,902
14150,1107,906
14155,1105,904
14160,1115,913
14165,1107,910
14170,1093,907
14175,1094,907
14180,1091,901
14185,1094,901
14190,1094,895
14195,1102,892
14200,1081,893
14205,1089,893
14210,1081,891
14215,1082,886
14220,1077,885
14225,1085,878
14230,1077,880
14235,1072,882
14240,1069,878
14245,1071,878
14250,1058,879
14255,1056,869
14260,1063,874
14265,1061,875
14270,1051,872
14275,1037,869
14280,1039,867
14285,1040,864
14290,1029,861
14295,1023,863
14300,1019,860
14305,1012,858
14310,1004,864
14315,1012,855
14320,985,855
14325,993,860
14330,992,852
14335,973,850
14340,978,848
14345,962,851
14350,956,857
14355,957,849
14360,937,849
14365,929,843
14370,926,843
14375,913,841
14380,918,846
14385,894,843
14390,891,839
14395,884,839
14400,877,836
14405,872,834
14410,854,831
14415,845,835
14420,842,829
14425,837,831
14430,833,820
14435,816,818
14440,823,818
14445,813,815
14450,803,807
14455,795,799
14460,786,799
14465,783,795
14470,781,791
14475,765,791
14480,765,790
14485,761,783
14490,758,778
14495,766,772
14500,753,772
14505,746,763
14510,751,759
14515,749,753
14520,747,753
14525,747,745
14530,743,742
14535,748,741
14540,754,730
14545,757,731
14550,751,719
14555,754,715
14560,755,705
14565,760,708
14570,774,703
14575,772,700
14580,783,692
14585,795,689
14590,799,688
14595,810,678
14600,819,677
14605,824,668
14610,826,672
14615,843,668
14620,852,668
14625,858,663
14630,873,666
14635,884,657
14640,893,658
14645,891,654
14650,913,645
14655,921,647
14660,924,654
14665,947,654
14670,951,650
14675,965,653
14680,978,647
14685,989,652
14690,999,651
14695,1012,652
14700,1018,662
14705,1030,661
14710,1050,663
14715,1050,667
14720,1067,675
14725,1069,675
14730,1083,680
14735,1097,681
14740,1101,692
14745,1113,688
14750,1125,700
14755,1119,701
14760,1118,707
14765,1141,710
14770,1144,715
14775,1151,722
14780,1151,728
14785,1162,734
14790,1167,741
14795,1172,751
14800,1168,757
14805,1165,755
14810,1183,772
14815,1177,771
14820,1180,785
14825,1181,785
14830,1184,791
14835,1186,799
14840,1193,808
14845,1187,823
14850,1191,816
14855,1190,828
14860,1186,832
14865,1186,834
14870,1184,843
14875,1181,845
14880,1185,855
14885,1182,858
14890,1180,864
14895,1181,870
14900,1172,877
14905,1172,873
14910,1166,883
14915,1161,884
14920,1172,888
14925,1151,887
14930,1156,895
14935,1149,899
14940,1156,896
14945,1143,898
14950,1144,902
14955,1145,907
14960,1134,901
14965,1121,908
14970,1131,909
14975,1126,906
14980,1126,909
14985,1120,909
14990,1122,913
14995,1118,912
15000,1111,908
15005,1113,910
15010,1107,907
15015,1109,904
15020,1097,910
15025,1101,906
15030,1105,905
15035,1099,901
15040,1099,901
15045,1102,901
15050,1083,896
15055,1092,904
15060,1092,899
15065,1089,891
15070,1081,894
15075,1083,893
15080,1081,884
15085,1081,889
15090,1085,886
15095,1075,881
15100,1068,883
15105,1077,880
15110,1059,881
15115,1066,877
15120,1052,874
15125,1055,869
15130,1042,868
15135,1051,870
15140,1042,862
15145,1041,866
15150,1038,866
15155,1033,862
15160,1032,855
15165,1018,861
15170,1017,864
15175,1009,860
15180,1001,857
15185,1006,857
15190,987,853
15195,993,853
15200,973,854
15205,971,848
15210,970,847
15215,958,844
15220,961,846
15225,936,851
15230,931,850
15235,936,843
15240,922,844
15245,911,844
15250,893,837
15255,892,838
15260,885,834
15265,875,832
15270,875,831
15275,862,831
15280,853,830
15285,841,826
15290,836,823
15295,828,822
15300,812,817
15305,812,811
15310,808,811
15315,808,813
15320,796,808
15325,773,797
15330,782,794
15335,775,793
15340,774,788
15345,767,785
15350,765,783
15355,761,779
15360,748,775
15365,753,772
15370,745,763
15375,763,759
15380,746,755
15385,746,757
15390,741,747
15395,759,742
15400,755,732
15405,747,736
15410,757,730
15415,759,720
15420,756,718
15425,760,710
15430,767,709
15435,766,703
15440,780,702
15445,785,693
15450,800,689
15455,806,681
15460,808,679
15465,800,677
15470,825,675
15475,825,667
15480,831,667
15485,843,668
15490,863,666
15495,867,659
15500,885,661
15505,887,658
15510,901,654
15515,909,654
15520,929,649
15525,934,657
15530,944,649
15535,956,653
15540,966,649
15545,993,653
15550,997,654
15555,992,660
15560,1011,657
15565,1027,656
15570,1031,661
15575,1041,667
15580,1056,668
15585,1059,665
15590,1074,674
15595,1081,676
15600,1086,678
15605,1103,683
15610,1109,698
15615,1108,695
15620,1131,705
15625,1122,700
15630,1135,715
15635,1137,719
15640,1140,725
15645,1152,725
15650,1152,736
15655,1167,743
15660,1176,748
15665,1169,752
15670,1172,758
15675,1181,764
15680,1181,777
15685,1192,781
15690,1180,788
15695,1178,791
15700,1199,797
15705,1198,806
15710,1189,815
15715,1197,810
15720,1177,827
15725,1181,835
15730,1197,834
15735,1192,842
15740,1176,848
15745,1177,859
15750,1177,856
15755,1180,865
15760,1175,870
15765,1166,873
15770,1174,879
15775,1168,882
15780,1167,881
15785,1157,886
15790,1157,892
15795,1146,891
15800,1154,891
15805,1144,900
15810,1135,903
15815,1137,906
15820,1138,908
15825,1142,903
15830,1129,907
15835,1134,907
15840,1128,914
15845,1124,904
15850,1117,904
15855,1113,907
15860,1112,907
15865,1124,909
15870,1102,909
15875,1105,905
15880,1105,908
15885,1109,903
15890,1102,905
15895,1105,903
15900,1100,905
15905,1096,901
15910,1092,901
15915,1101,894
15920,1093,897
15925,1091,886
15930,1094,893
15935,1087,887
15940,1086,889
15945,1082,887
15950,1072,886
15955,1076,884
15960,1071,881
15965,1073,883
15970,1078,879
15975,1066,876
15980,1058,874
15985,1058,870
15990,1063,870
15995,1049,870
16000,1052,874
16004,1042,869
16010,1036,864
16015,1034,866
16020,1031,867
16024,1027,856
16030,1034,865
16035,1009,862
16040,1004,857
16045,999,863
16050,996,858
16055,990,854
16059,977,855
16065,978,852
16070,973,851
16075,965,849
16079,952,853
16085,952,851
16090,932,842
16094,934,846
16100,918,845
16105,907,838
16110,916,847
16114,907,839
16120,894,840
16125,889,841
16129,869,835
16135,866,832
16140,856,831
16145,852,829
16149,846,828
16155,834,824
16160,823,820
16165,819,815
16170,811,819
16175,806,809
16180,803,809
16184,792,804
16190,781,799
16195,779,799
16200,786,793
16204,772,794
16210,763,795
16215,756,785
16219,755,778
16225,763,772
16230,752,776
16235,764,765
16239,757,764
16245,742,752
16250,747,754
16254,750,745
16260,745,738
16265,754,740
16270,746,732
16274,746,728
16280,744,724
16285,760,716
16290,765,708
16295,768,705
16300,782,701
16305,780,699
16309,788,695
16315,792,691
16320,798,684
16325,804,681
16329,807,682
16335,820,674
16340,824,670
16344,837,668
16350,850,663
16355,864,659
16360,861,662
16364,871,654
16370,889,656
16375,905,659
16379,909,653
16385,930,650
16390,924,649
16395,950,652
16400,958,651
16405,969,651
16410,978,651
16415,991,656
16420,1005,656
16425,1017,656
16430,1030,656
16435,1033,662
16440,1045,666
16445,1054,668
16450,1058,671
16455,1075,673
16460,1086,677
16465,1091,687
16470,1100,683
16475,1113,687
16480,1110,701
16485,1117,699
16490,1133,703
16495,1132,715
16500,1143,718
16505,1160,725
16510,1165,730
16515,1154,731
16520,1161,743
16525,1166,747
16530,1176,754
16535,1168,757
16540,1176,766
16545,1183,772
16550,1180,778
16555,1184,786
16560,1188,794
16565,1184,807
16570,1193,810
16575,1191,811
16580,1186,818
16585,1192,827
16590,1190,835
16595,1189,836
16600,1188,845
16605,1182,849
16610,1176,859
16615,1176,863
16620,1177,868
16625,1167,872
16630,1166,874
16635,1178,879
16640,1171,880
16645,1158,880
16650,1148,888
16655,1148,886
16660,1153,892
16665,1154,892
16670,1148,897
16675,1142,903
16680,1136,902
16685,1139,902
16690,1136,905
16695,1138,910
16700,1120,909
16705,1127,908
16710,1137,910
16715,1121,913
16720,1113,910
16725,1117,910
16730,1111,911
16735,1111,906
16740,1106,905
16745,1109,905
16750,1106,904
16755,1100,907
16760,1108,906
16765,1100,907
16770,1094,903
16775,1101,907
16780,1090,898
16785,1089,896
16790,1094,895
16795,1079,894
16800,1079,890
16805,1087,884
16810,1077,890
16815,1087,887
16820,1071,885
16825,1076,883
16830,1068,881
16835,1063,885
16840,1075,876
16845,1065,876
16850,1063,876
16855,1051,877
16860,1051,874
16865,1051,872
16870,1044,863
16875,1039,865
16880,1042,865
16885,1032,862
16890,1031,863
16895,1028,866
16900,1013,861
16905,1018,855
16910,997,860
16915,986,859
16920,980,858
16925,986,850
16930,971,853
16935,976,852
16940,967,849
16945,955,847
16950,959,847
16955,946,848
16960,933,840
16965,927,844
16970,916,842
16975,905,839
16980,903,838
16985,889,836
16990,878,840
16995,882,836
17000,883,836
17005,855,829
17010,852,833
17015,841,824
17020,831,819
17025,830,825
17030,822,819
17035,808,812
17040,805,817
17045,800,811
17050,790,808
17055,783,804
17060,781,792
17065,779,797
17070,777,790
17075,764,792
17080,763,781
17085,764,785
17090,758,777
17095,750,767
17100,754,763
17105,747,764
17110,744,753
17115,742,753
17120,738,750
17125,750,746
17130,748,743
17135,747,734
17140,751,725
17145,756,720
17150,763,719
17155,763,716
17160,768,711
17165,772,702
17170,764,697
17175,780,690
17180,800,692
17185,792,686
17190,796,684
17195,815,679
17200,822,680
17205,824,673
17210,838,671
17215,853,659
17220,855,668
17225,862,664
17230,876,659
17235,896,659
17240,895,653
17245,904,654
17250,928,650
17255,930,654
17260,936,655
17265,945,648
17270,962,647
17275,985,651
17280,988,655
17285,1008,658
17290,1014,652
17295,1020,660
17300,1032,659
17305,1041,666
17310,1054,661
17315,1057,668
17320,1063,672
17325,1074,676
17330,1088,684
17335,1100,685
17340,1102,694
17345,1107,696
17350,1114,705
17355,1131,705
17360,1145,711
17365,1141,720
17370,1147,716
17375,1159,731
17380,1168,738
17385,1162,739
17390,1166,746
17395,1180,749
17400,1168,759
17405,1183,764
17410,1184,777
17415,1190,781
17420,1190,786
17425,1191,797
17430,1190,799
17435,1178,805
17440,1188,812
17445,1191,817
17450,1201,832
17455,1182,831
17460,1180,842
17465,1199,845
17470,1175,849
17475,1186,850
17480,1176,856
17485,1179,864
17490,1177,865
17495,1167,871
17500,1163,875
17505,1167,877
17510,1157,884
17515,1164,885
17520,1168,894
17525,1153,889
17530,1148,896
17535,1147,904
17540,1145,900
17545,1137,905
17550,1145,903
17555,1132,905
17560,1135,907
17565,1126,912
17570,1135,907
17575,1119,907
17580,1119,910
17585,1112,912
17590,1115,907
17595,1110,906
17600,1116,910
17605,1115,906
17610,1099,906
17615,1109,905
17620,1103,908
17625,1105,908
17630,1105,901
17635,1096,901
17640,1100,894
17645,1091,902
17650,1088,900
17655,1088,896
17660,1090,887
17665,1083,889
17670,1086,892
17675,1084,886
17680,1082,888
17685,1081,887
17690,1070,882
17695,1074,882
17700,1061,882
17705,1068,879
17710,1069,882
17715,1061,874
17720,1051,874
17725,1046,872
17730,1058,873
17735,1043,872
17740,1041,869
17745,1035,865
17750,1038,863
17755,1030,861
17760,1024,860
17765,1012,865
17770,1015,858
17775,1006,859
17780,1000,859
17785,997,855
17790,992,849
17795,982,850
17800,975,846
17805,967,847
17810,950,854
17815,945,849
17820,939,850
17825,924,842
17830,927,848
17835,920,845
17840,914,840
17845,906,840
17850,890,838
17855,895,838
17860,872,835
17865,863,833
17870,863,831
17875,850,829
17880,842,828
17885,836,822
17890,832,827
17895,822,818
17900,817,819
17905,805,819
17910,806,810
17915,790,809
17920,792,806
17925,775,800
17930,779,794
17935,773,790
17940,765,785
17945,771,783
17950,758,780
17955,755,780
17960,749,771
17965,741,766
17970,750,755
17975,748,755
17980,741,749
17985,750,751
17990,744,745
17995,752,738
18000,750,730
18005,746,724
18010,754,722
18015,758,722
18020,773,716
18025,768,706
18030,778,705
18035,785,701
18040,777,694
18045,794,693
18050,796,683
18055,812,680
18060,812,672
18065,825,675
18070,840,671
18075,837,667
18080,850,671
18085,864,656
18090,861,654
18095,883,654
18100,886,657
18105,906,649
18110,911,652
18115,921,655
18120,935,652
18125,936,655
18130,955,650
18135,966,652
18140,966,650
18145,986,654
18150,999,654
18155,1012,661
18160,1026,660
18165,1026,663
18170,1039,659
18175,1049,670
18180,1061,670
18185,1065,675
18190,1087,674
18195,1091,679
18200,1109,688
18205,1103,692
18210,1120,694
18215,1115,699
18220,1124,706
18225,1132,715
18230,1142,720
18235,1153,718
18240,1152,730
18245,1156,734
18250,1168,738
18255,1162,750
18260,1166,755
18265,1179,762
18270,1178,770
18275,1185,778
18280,1179,780
18285,1175,780
18290,1192,795
18295,1180,801
18300,1193,806
18305,1191,812
18310,1193,820
18315,1188,826
18320,1186,830
18325,1188,833
18330,1186,841
18335,1184,849
18340,1177,849
18345,1186,860
18350,1178,858
18355,1175,875
18360,1175,874
18365,1164,869
18370,1158,882
18375,1166,887
18380,1161,891
18385,1153,891
18390,1166,887
18395,1146,893
18400,1151,901
18405,1147,899
18410,1152,903
18415,1139,908
18420,1143,907
18425,1131,908
18430,1133,913
18435,1130,911
18440,1127,906
18445,1125,911
18450,1131,917
18455,1115,916
18460,1112,913
18465,1106,910
18470,1112,906
18475,1110,905
18480,1101,907
18485,1097,903
18490,1108,903
18495,1094,906
18500,1097,902
18505,1098,900
18510,1098,901
18515,1101,898
18520,1090,896
18525,1090,892
18530,1097,894
18535,1088,888
18540,1080,885
18545,1084,886
18550,1079,885
18555,1078,876
18560,1063,879
18565,1064,877
18570,1062,882
18575,1064,880
18580,1059,875
18585,1058,871
18590,1048,875
18595,1047,870
18600,1049,866
18605,1041,867
18610,1028,866
18615,1034,863
18620,1027,862
18625,1023,857
18630,1016,856
18635,1016,854
18640,1001,855
18645,1007,859
18650,991,860
18655,987,854
18660,982,853
18665,974,850
18670,972,848
18675,956,855
18680,952,846
18685,947,847
18690,939,845
18695,931,848
18700,923,845
18705,915,838
18710,906,837
18715,895,843
18720,880,842
18725,871,834
18730,869,837
18735,873,835
18740,853,824
18745,846,826
18750,829,825
18755,832,819
18760,819,818
18765,815,817
18770,800,815
18775,801,816
18780,797,809
18785,795,803
18790,789,797
18795,781,796
18800,759,787
18805,772,788
18810,757,781
18815,760,780
18820,754,777
18825,749,769
18830,755,765
18835,756,762
18840,753,758
18845,754,756
18850,740,742
18855,751,742
18860,748,737
18865,749,729
18870,741,731
18875,759,719
18880,751,720
18885,772,711
18890,777,713
18895,780,700
18900,774,697
18905,775,698
18910,787,688
18915,811,689
18920,805,685
18925,807,672
18930,823,676
18935,824,671
18940,843,670
18945,858,666
18950,852,660
18955,863,665
18960,883,656
18965,885,652
18970,903,649
18975,911,652
18980,917,655
18985,922,650
18990,939,646
18995,953,649
19000,963,655
19005,978,654
19010,987,661
19015,997,657
19020,1007,662
19025,1017,660
19030,1034,659
19035,1038,661
19040,1052,670
19045,1052,671
19050,1074,679
19055,1075,675
19060,1093,682
19065,1091,688
19070,1101,692
19075,1115,696
19080,1119,703
19085,1129,704
19090,1139,711
19095,1147,713
19100,1148,724
19105,1159,728
19110,1152,734
19115,1170,745
19120,1168,749
19125,1174,753
19130,1174,762
19135,1178,771
19140,1178,774
19145,1185,782
19150,1184,782
19155,1191,790
19160,1184,795
19165,1193,802
19170,1187,811
19175,1191,818
19180,1190,821
19185,1190,830
19190,1192,839
19195,1182,845
19200,1179,845
19205,1181,851
19210,1181,857
19215,1179,859
19220,1174,867
19225,1169,868
19230,1169,883
19235,1169,880
19240,1156,884
19245,1160,882
19250,1152,888
19255,1160,892
19260,1151,894
19265,1146,898
19270,1151,903
19275,1136,902
19280,1140,909
19285,1132,902
19290,1139,906
19295,1132,912
19300,1127,910
19305,1124,906
19310,1122,910
19315,1118,916
19320,1111,908
19325,1115,906
19330,1111,909
19335,1115,911
19340,1103,905
19345,1097,912
19350,1104,910
19355,1099,902
19360,1094,901
19365,1095,901
19370,1093,900
19375,1096,898
19380,1099,898
19385,1090,896
19390,1085,890
19395,1085,891
19400,1078,891
19405,1086,892
19410,1079,885
19415,1071,890
19420,1078,880
19425,1076,882
19430,1067,881
19435,1067,878
19440,1067,873
19445,1064,873
19450,1055,876
19455,1051,873
19460,1044,868
19465,1042,867
19470,1039,861
19475,1041,864
19480,1035,860
19485,1032,865
19490,1030,862
19495,1018,864
19500,1001,855
19505,1010,855
19510,1002,859
19515,992,849
19520,983,852
19525,988,853
19530,975,855
19535,964,846
19540,962,849
19545,960,850
19550,945,847
19555,938,847
19560,930,841
19565,917,843
19570,904,843
19575,902,840
19580,894,842
19585,891,832
19590,876,837
19595,864,837
19600,861,829
19605,848,830
19610,850,823
19615,838,823
19620,826,823
19625,820,820
19630,814,816
19635,811,814
19640,802,805
19645,796,804
19650,789,801
19655,787,802
19660,778,794
19665,773,793
19670,766,791
19675,771,783
19680,754,778
19685,753,777
19690,755,772
19695,759,766
19700,753,757
19705,752,754
19710,750,753
19715,742,748
19720,756,743
19725,747,742
19730,750,733
19735,753,726
19740,757,725
19745,763,718
19750,762,713
19755,768,708
19760,776,705
19765,771,697
19770,784,690
19775,788,695
19780,796,684
19785,800,679
19790,828,677
19795,817,679
19800,831,675
19805,829,666
19810,841,666
19815,859,663
19820,865,661
19825,875,662
19830,893,655
19835,901,657
19840,904,649
19845,925,653
19850,926,653
19855,940,656
19860,948,651
19865,967,649
19870,981,653
19875,985,654
19880,1010,654
19885,1000,662
19890,1023,659
19895,1034,656
19900,1033,664
19905,1052,670
19910,1059,672
19915,1070,679
19920,1070,680
19925,1093,677
19930,1092,683
19935,1105,687
19940,1100,693
19945,1124,700
19950,1132,700
19955,1129,709
19960,1133,714
19965,1157,726
19970,1149,728
19975,1150,730
19980,1160,742
19985,1162,745
19990,1162,754
19995,1174,757
20000,1172,766
20005,1181,770
20010,1173,781
20015,1184,789
20020,1181,788
20025,1187,796
20030,1184,803
20035,1186,817
20040,1192,820
20045,1188,823
20050,1193,829
20055,1186,834
20060,1188,843
20065,1183,850
20070,1181,851
20075,1186,864
20080,1173,861
20085,1174,865
20090,1169,876
20095,1172,874
20100,1158,880
20105,1163,883
20110,1159,888
20115,1155,896
20120,1164,894
20125,1153,895
20130,1137,894
20135,1154,894
20140,1137,905
20145,1152,903
20150,1137,903
20155,1136,908
20160,1128,906
20165,1124,911
20170,1117,910
20175,1114,912
20180,1121,914
20185,1115,911
20190,1120,911
20195,1110,908
20200,1113,912
20205,1111,905
20210,1109,910
20215,1100,910
20220,1103,910
20225,1095,905
20230,1100,897
20235,1091,901
20240,1100,899
20245,1096,892
20250,1091,896
20255,1088,895
20260,1089,890
20265,1076,895
20270,1079,885
20275,1075,884
20280,1080,886
20285,1071,880
20290,1069,880
20295,1069,878
20300,1069,876
20305,1057,877
20310,1053,878
20315,1052,873
20320,1053,866
20325,1054,874
20330,1043,873
20335,1037,871
20340,1035,867
20345,1031,866
20350,1028,866
20355,1026,859
20360,1019,856
20365,1016,859
20370,1009,859
20375,993,855
20380,994,853
20385,995,851
20390,990,857
20395,979,855
20400,972,850
20405,963,847
20410,947,853
20415,946,846
20420,936,846
20425,929,848
20430,915,841
20435,907,838
20440,899,841
20445,886,837
20450,883,832
20455,883,841
20460,870,829
20465,871,828
20470,856,824
20475,843,826
20480,836,832
20485,826,823
20490,829,816
20495,821,816
20500,802,815
20505,803,807
20510,789,803
20515,786,804
20520,792,798
20525,784,794
20530,781,793
20535,774,786
20540,762,780
20545,764,781
20550,757,781
20555,752,771
20560,755,762
20565,742,759
20570,755,756
20575,751,751
20580,750,754
20585,741,737
20590,746,744
20595,749,730
20600,759,725
20605,759,722
20610,760,718
20615,768,717
20620,775,707
20625,772,704
20630,772,701
20635,785,691
20640,792,696
20645,789,687
20650,795,683
20655,813,679
20660,824,670
20665,831,674
20670,834,670
20675,847,665
20680,851,663
20685,864,660
20690,876,658
20695,883,656
20700,892,657
20705,909,658
20710,919,654
20715,933,654
20720,936,647
20725,953,650
20730,963,652
20735,976,648
20740,987,654
20745,1000,658
20750,1012,658
20755,1013,662
20760,1024,659
20765,1042,660
20770,1050,667
20775,1067,670
20780,1068,671
20785,1079,679
20790,1088,684
20795,1097,685
20800,1102,693
20805,1112,698
20810,1118,702
20815,1125,708
20820,1141,711
20825,1144,718
20830,1144,723
20835,1158,727
20840,1156,737
20845,1164,747
20850,1168,743
20855,1176,751
20860,1177,758
20865,1181,766
20870,1181,773
20875,1182,777
20880,1186,786
20885,1189,792
20890,1180,800
20895,1189,806
20900,1189,810
20905,1185,818
20910,1189,823
20915,1191,824
20920,1189,833
20925,1182,840
20930,1172,847
20935,1180,854
20940,1177,857
20945,1171,858
20950,1167,871
20955,1181,873
20960,1165,881
20965,1160,874
20970,1171,884
20975,1159,889
20980,1158,888
20985,1159,900
20990,1157,896
20995,1153,895
21000,1139,899
21005,1138,902
21010,1143,910
21015,1126,907
21020,1134,904
21025,1128,909
21030,1122,911
21035,1127,906
21040,1123,910
21045,1114,909
21050,1116,910
21055,1121,916
21060,1108,908
21065,1102,907
21070,1113,909
21075,1112,905
21080,1092,908
21085,1087,907
21090,1095,903
21095,1097,902
21100,1104,901
21105,1101,898
21110,1089,897
21115,1095,897
21120,1092,893
21125,1094,891
21130,1088,889
21135,1091,885
21140,1082,892
21145,1081,888
21150,1079,884
21155,1079,881
21160,1071,882
21165,1077,876
21170,1059,873
21175,1053,873
21180,1057,876
21185,1054,872
21190,1047,875
21195,1045,871
21200,1045,866
21205,1043,862
21210,1031,865
21215,1025,863
21220,1020,860
21225,1022,860
21230,1011,860
21235,1001,858
21240,1006,857
21245,994,853
21250,989,855
21255,978,852
21260,977,850
21265,970,844
21270,957,854
21275,955,853
21280,954,853
21285,937,846
21290,915,846
21295,917,845
21300,913,842
21305,900,839
21310,894,836
21315,894,831
21320,883,831
21325,867,834
21330,853,832
21335,849,829
21340,839,827
21345,835,823
21350,833,821
21355,831,819
21360,810,819
21365,804,812
21370,804,812
21375,805,805
21380,789,803
21385,784,808
21390,776,798
21395,774,792
21400,767,791
21405,761,783
21410,761,779
21415,747,774
21420,761,776
21425,756,762
21430,751,762
21435,738,763
21440,752,750
21445,744,744
21450,745,742
21455,739,742
21460,755,729
21465,748,729
21470,754,723
21475,757,722
21480,762,712
21485,752,708
21490,765,707
21495,773,702
21500,788,692
21505,793,691
21510,793,691
21515,804,686
21520,817,680
21525,817,674
21530,827,678
21535,832,670
21540,847,669
21545,858,662
21550,859,659
21555,887,656
21560,885,662
21565,889,649
21570,900,661
21575,924,652
21580,930,652
21585,948,653
21590,951,653
21595,971,653
21600,975,652
21605,984,650
21610,995,660
21615,1012,654
21620,1013,659
21625,1026,658
21630,1039,657
21635,1045,666
21640,1060,672
21645,1075,676
21650,1077,673
21655,1088,677
21660,1099,685
21665,1100,689
21670,1114,694
21675,1119,701
21680,1129,703
21685,1136,709
21690,1148,714
21695,1152,718
21700,1148,725
21705,1161,737
21710,1159,745
21715,1168,741
21720,1166,753
21725,1175,758
21730,1181,769
21735,1187,774
21740,1179,776
21745,1190,787
21750,1188,793
21755,1196,799
21760,1179,802
21765,1187,811
21770,1178,821
21775,1188,824
21780,1184,830
21785,1191,836
21790,1182,845
21795,1183,844
21800,1185,852
21805,1182,851
21810,1174,859
21815,1182,868
21820,1169,870
21825,1173,876
21830,1165,879
21835,1160,886
21840,1163,887
21845,1158,892
21850,1156,890
21855,1166,899
21860,1152,901
21865,1150,896
21870,1137,908
21875,1144,904
21880,1139,909
21885,1128,907
21890,1130,905
21895,1118,909
21900,1121,913
21905,1118,912
21910,1118,911
21915,1115,911
21920,1115,911
21925,1115,912
21930,1105,906
21935,1112,905
21940,1107,907
21945,1094,907
21950,1102,904
21955,1102,907
21960,1109,903
21965,1094,901
21970,1090,898
21975,1097,894
21980,1091,901
21985,1098,891
21990,1083,894
21995,1074,888
22000,1090,886
22005,1079,890
22010,1079,884
22015,1071,880
22020,1062,877
22025,1068,883
22030,1068,885
22035,1062,876
22040,1061,875
22045,1051,873
22050,1056,870
22055,1046,871
22060,1044,868
22065,1046,866
22070,1027,864
22075,1035,863
22080,1040,862
22085,1025,859
22090,1008,859
22095,1015,859
22100,1007,857
22105,1004,859
22110,996,853
22115,980,853
22120,988,849
22125,975,849
22130,972,855
22135,958,855
22140,954,849
22145,942,846
22150,944,845
22155,927,849
22160,928,844
22165,904,851
22170,906,840
22175,899,836
22180,889,838
22185,882,839
22190,868,839
22195,865,835
22200,851,828
22205,839,825
22210,842,826
22215,834,815
22220,822,823
22225,820,818
22230,811,812
22235,791,812
22240,797,808
22245,792,805
22250,786,806
22255,783,792
22260,778,791
22265,767,789
22270,753,783
22275,758,775
22280,761,777
22285,754,773
22290,745,766
22295,748,764
22300,752,759
22305,733,754
22310,738,753
22315,741,741
22320,748,738
22325,754,731
22330,745,724
22335,760,724
22340,765,717
22345,761,713
22350,766,708
22355,770,705
22360,780,694
22365,774,694
22370,789,694
22375,794,686
22380,803,686
22385,809,673
22390,813,674
22395,821,678
22400,836,672
22405,845,663
22410,855,662
22415,856,662
22420,874,658
22425,872,660
22430,900,657
22435,899,659
22440,916,650
22445,938,655
22450,936,653
22455,955,654
22460,964,648
22465,978,653
22470,981,652
22475,999,656
22480,1003,662
22485,1007,654
22490,1025,662
22495,1031,663
22500,1046,663
22505,1069,664
22510,1069,668
22515,1074,679
22520,1096,691
22525,1094,684
22530,1101,691
22535,1107,694
22540,1123,704
22545,1120,709
22550,1137,712
22555,1139,718
22560,1153,721
22565,1143,727
22570,1155,738
22575,1158,740
22580,1174,747
22585,1173,754
22590,1180,760
22595,1184,766
22600,1183,770
22605,1187,773
22610,1188,784
22615,1189,791
22620,1191,796
22625,1181,803
22630,1184,810
22635,1195,812
22640,1187,817
22645,1187,827
22650,1179,834
22655,1191,838
22660,1200,848
22665,1179,850
22670,1175,860
22675,1183,862
22680,1175,867
22685,1166,866
22690,1164,875
22695,1166,880
22700,1168,886
22705,1155,886
22710,1153,887
22715,1161,896
22720,1146,903
22725,1153,900
22730,1151,893
22735,1150,903
22740,1148,903
22745,1133,906
22750,1133,907
22755,1127,910
22760,1128,907
22765,1129,907
22770,1117,912
22775,1114,911
22780,1117,916
22785,1115,907
22790,1107,910
22795,1111,915
22800,1102,907
22805,1097,907
22810,1106,902
22815,1103,898
22820,1102,903
22825,1103,904
22830,1090,903
22835,1095,900
22840,1100,897
22845,1092,896
22850,1088,893
22855,1091,891
22860,1079,887
22865,1085,892
22870,1079,882
22875,1065,885
22880,1076,884
22885,1065,882
22890,1064,879
22895,1068,884
22900,1061,877
22905,1064,878
22910,1061,875
22915,1052,867
22920,1053,868
22925,1046,868
22930,1039,865
22935,1036,865
22940,1040,860
22945,1032,861
22950,1023,872
22955,1021,857
22960,1004,861
22965,1002,854
22970,999,856
22975,1003,852
22980,989,855
22985,987,850
22990,968,850
22995,964,850
23000,957,858
23005,956,849
23010,941,847
23015,929,840
23020,934,847
23025,922,845
23030,921,840
23035,900,840
23040,896,841
23045,893,843
23050,878,832
23055,869,833
23060,856,833
23065,855,829
23070,846,829
23075,842,825
23080,831,821
23085,826,823
23090,823,814
23095,813,815
23100,803,813
23105,798,806
23110,786,798
23115,788,798
23120,782,793
23125,766,795
23130,766,784
23135,772,783
23140,761,778
23145,752,779
23150,755,771
23155,746,767
23160,739,762
23165,756,759
23170,748,754
23175,749,749
23180,744,744
23185,744,739
23190,745,730
23195,755,734
23200,751,729
23205,764,720
23210,762,715
23215,770,707
23220,764,703
23225,771,706
23230,788,697
23235,785,692
23240,793,690
23245,813,686
23250,807,674
23255,818,677
23260,827,673
23265,832,671
23270,848,672
23275,862,658
23280,861,666
23285,874,657
23290,892,658
23295,904,655
23300,913,652
23305,914,652
23310,936,658
23315,939,655
23320,951,650
23325,963,653
23330,977,650
23335,980,657
23340,992,655
23345,1005,659
23350,1016,657
23355,1027,661
23360,1050,662
23365,1050,666
23370,1059,666
23375,1069,675
23380,1078,669
23385,1088,680
23390,1095,688
23395,1109,687
23400,1112,691
23405,1127,695
23410,1126,701
23415,1124,708
23420,1144,716
23425,1145,715
23430,1146,727
23435,1153,732
23440,1158,743
23445,1168,752
23450,1178,753
23455,1171,761
23460,1177,766
23465,1185,770
23470,1188,776
23475,1182,789
23480,1193,791
23485,1196,796
23490,1181,808
23495,1190,808
23500,1197,820
23505,1188,822
23510,1196,826
23515,1189,838
23520,1198,841
23525,1185,847
23530,1183,851
23535,1175,856
23540,1172,859
23545,1176,863
23550,1177,870
23555,1171,869
23560,1169,884
23565,1159,885
23570,1161,883
23575,1154,885
23580,1149,889
23585,1159,900
23590,1154,901
23595,1135,902
23600,1142,902
23605,1133,903
23610,1134,905
23615,1140,907
23620,1127,909
23625,1124,907
23630,1124,919
23635,1118,908
23640,1123,909
23645,1111,907
23650,1121,909
23655,1108,915
23660,1107,910
23665,1109,912
23670,1103,905
23675,1110,910
23680,1099,902
23685,1100,900
23690,1106,899
23695,1090,900
23700,1093,899
23705,1093,900
23710,1088,898
23715,1088,892
23720,1084,896
23725,1078,888
23730,1084,885
23735,1082,886
23740,1067,879
23745,1072,887
23750,1069,884
23755,1079,882
23760,1071,874
23765,1064,877
23770,1056,873
23775,1063,872
23780,1064,870
23785,1048,869
23790,1041,869
23795,1052,873
23800,1041,868
23805,1033,862
23810,1027,867
23815,1022,862
23820,1026,860
23825,1016,854
23830,1005,858
23835,1007,860
23840,990,855
23845,998,858
23850,986,849
23855,985,854
23860,968,846
23865,960,850
23870,955,845
23875,947,848
23880,933,848
23885,929,845
23890,917,842
23895,922,843
23900,905,840
23905,901,843
23910,887,833
23915,876,834
23920,876,835
23925,863,829
23930,853,828
23935,851,828
23940,844,821
23945,826,819
23950,822,816
23955,814,815
23960,809,810
23965,816,812
23970,792,806
23975,787,805
23980,785,801
23985,779,798
23990,774,795
23995,773,792
24000,761,785
24005,758,781
24010,757,774
24015,755,769
24020,757,768
24025,761,761
24030,748,760
24035,751,752
24040,752,751
24045,748,744
24050,742,744
24055,756,731
24060,751,730
24065,754,729
24070,749,714
24075,767,711
24080,772,711
24085,765,705
24090,774,695
24095,770,695
24100,790,692
24105,799,689
24110,796,680
24115,804,683
24120,817,677
24125,822,677
24130,837,668
24135,833,670
24140,853,663
24145,857,657
24150,874,662
24155,880,655
24160,901,653
24165,904,657
24170,915,652
24175,932,651
24180,942,650
24185,951,652
24190,965,645
24195,976,651
24200,989,653
24205,997,654
24210,1002,654
24215,1013,658
24220,1029,661
24225,1038,661
24230,1048,662
24235,1057,676
24240,1067,673
24245,1073,669
24250,1090,681
24255,1097,683
24260,1104,692
24265,1110,690
24270,1121,701
24275,1127,707
24280,1133,704
24285,1134,712
24290,1136,721
24295,1160,725
24300,1155,735
24305,1164,743
24310,1163,745
24315,1177,746
24320,1172,758
24325,1179,768
24330,1185,771
24335,1179,772
24340,1193,786
24345,1189,793
24350,1185,796
24355,1189,803
24360,1183,812
24365,1181,814
24370,1191,814
24375,1182,829
24380,1185,837
24385,1181,841
24390,1171,847
24395,1182,847
24400,1184,857
24405,1176,865
24410,1169,868
24415,1173,872
24420,1175,868
24425,1167,875
24430,1166,881
24435,1160,890
24440,1156,887
24445,1157,894
24450,1154,893
24455,1147,896
24460,1148,900
24465,1154,905
24470,1139,900
24475,1138,902
24480,1134,911
24485,1139,904
24490,1137,906
24495,1121,908
24500,1125,914
24505,1117,909
24510,1124,910
24515,1117,901
24520,1109,905
24525,1112,904
24530,1099,910
24535,1108,908
24540,1114,903
24545,1095,907
24550,1096,901
24555,1100,904
24560,1097,902
24565,1090,899
24570,1100,903
24575,1092,896
24580,1084,890
24585,1080,891
24590,1085,890
24595,1081,896
24600,1077,885
24605,1075,880
24610,1072,884
24615,1070,888
24620,1073,876
24625,1057,877
24630,1067,883
24635,1063,873
24640,1056,871
24645,1054,879
24650,1041,868
24655,1039,871
24660,1045,862
24665,1041,864
24670,1037,859
24675,1023,864
24680,1022,861
24685,1022,858
24690,1011,862
24695,1013,857
24700,1005,855
24705,1005,856
24710,985,857
24715,985,855
24720,978,852
24725,968,852
24730,958,852
24735,960,845
24740,943,846
24745,940,846
24750,928,845
24755,922,843
24760,917,840
24765,902,842
24770,905,842
24775,893,835
24780,875,837
24785,884,828
24790,868,829
24795,852,831
24800,848,827
24805,832,823
24810,825,819
24815,825,819
24820,807,816
24825,816,814
24830,795,807
24835,803,806
24840,795,803
24845,790,798
24850,778,797
24855,777,794
24860,760,787
24865,773,786
24870,763,777
24875,759,778
24880,755,771
24885,750,768
24890,745,759
24895,754,755
24900,744,751
24905,749,749
24910,750,746
24915,743,734
24920,749,733
24925,752,731
24930,755,726
24935,756,719
24940,767,712
24945,762,711
24950,764,706
24955,766,705
24960,787,697
24965,793,692
24970,799,682
24975,808,688
24980,818,684
24985,819,677
24990,825,674
24995,833,668
25000,844,667
25005,851,665
25010,846,664
25015,873,661
25020,887,657
25025,899,652
25030,902,651
25035,915,650
25040,921,653
25045,945,651
25050,943,649
25055,958,649
25060,972,652
25065,981,655
25070,997,655
25075,998,653
25080,1018,661
25085,1022,660
25090,1035,666
25095,1046,661
25100,1059,673
25105,1072,673
25110,1074,671
25115,1082,672
25120,1101,684
25125,1103,685
25130,1116,692
25135,1121,693
25140,1134,710
25145,1127,708
25150,1146,716
25155,1153,718
25160,1156,730
25165,1153,729
25170,1164,737
25175,1162,745
25180,1178,755
25185,1172,764
25190,1177,762
25195,1179,776
25200,1183,778
25205,1187,782
25210,1183,789
25215,1183,795
25220,1186,802
25225,1191,809
25230,1187,817
25235,1185,825
25240,1186,831
25245,1191,836
25250,1194,838
25255,1178,841
25260,1187,851
25265,1179,857
25270,1180,862
25275,1176,868
25280,1175,874
25285,1169,871
25290,1169,876
25295,1161,882
25300,1157,882
25305,1157,887
25310,1161,897
25315,1158,899
25320,1151,898
25325,1141,904
25330,1142,905
25335,1134,909
25340,1139,905
25345,1131,904
25350,1136,908
25355,1122,911
25360,1126,913
25365,1129,911
25370,1119,916
25375,1122,906
25380,1113,908
25385,1108,909
25390,1105,908
25395,1114,906
25400,1108,906
25405,1104,913
25410,1098,908
25415,1097,899
25420,1106,900
25425,1099,906
25430,1093,895
25435,1095,900
25440,1096,901
25445,1091,895
25450,1083,887
25455,1097,886
25460,1082,895
25465,1076,890
25470,1076,888
25475,1073,886
25480,1073,878
25485,1074,882
25490,1069,875
25495,1057,879
25500,1062,875
25505,1064,875
25510,1055,872
25515,1048,870
25520,1056,871
25525,1053,866
25530,1043,863
25535,1042,860
25540,1030,865
25545,1031,869
25550,1027,859
25555,1007,862
25560,1006,863
25565,997,857
25570,1000,860
25575,978,857
25580,987,852
25585,977,857
25590,964,851
25595,959,854
25600,958,847
25605,949,847
25610,948,843
25615,923,844
25620,926,845
25625,919,845
25630,905,836
25635,896,837
25640,887,837
25645,874,833
25650,872,838
25655,863,833
25660,856,829
25665,853,828
25670,842,825
25675,844,824
25680,818,815
25685,815,818
25690,811,814
25695,797,810
25700,798,812
25705,799,807
25710,794,806
25715,781,790
25720,778,797
25725,761,790
25730,766,783
25735,762,778
25740,755,777
25745,757,774
25750,748,765
25755,748,764
25760,747,764
25765,750,754
25770,751,748
25775,742,745
25780,752,736
25785,758,735
25790,756,733
25795,754,723
25800,759,721
25805,759,715
25810,763,713
25815,766,707
25820,776,695
25825,781,696
25830,788,692
25835,798,690
25840,794,685
25845,802,682
25850,816,679
25855,825,670
25860,833,672
25865,837,670
25870,844,662
25875,858,659
25880,883,654
25885,882,655
25890,890,656
25895,902,650
25900,911,653
25905,915,652
25910,930,653
25915,941,646
25920,958,651
25925,978,647
25930,978,655
25935,996,664
25940,1008,657
25945,1016,660
25950,1022,657
25955,1038,664
25960,1040,666
25965,1052,662
25970,1065,673
25975,1076,671
25980,1084,680
25985,1102,685
25990,1114,690
25995,1107,688
26000,1124,702
26005,1125,704
26010,1131,711
26015,1139,715
26020,1145,718
26025,1144,724
26030,1153,734
26035,1156,737
26040,1172,744
26045,1163,752
26050,1175,756
26055,1180,766
26060,1179,771
26065,1179,779
26070,1185,785
26075,1189,788
26080,1175,803
26085,1185,805
26090,1190,803
26095,1184,815
26100,1189,820
26105,1180,829
26110,1184,837
26115,1179,839
26120,1185,849
26125,1183,847
26130,1180,857
26135,1183,860
26140,1167,865
26145,1177,866
26150,1171,875
26155,1173,876
26160,1166,882
26165,1162,886
26170,1156,890
26175,1150,892
26180,1158,892
26185,1147,896
26190,1146,897
26195,1147,906
26200,1138,907
26205,1140,908
26210,1131,907
26215,1134,907
26220,1124,906
26225,1121,915
26230,1119,912
26235,1113,905
26240,1111,908
26245,1120,910
26250,1113,912
26255,1113,913
26260,1104,909
26265,1105,907
26270,1109,907
26275,1103,906
26280,1103,901
26285,1096,905
26290,1088,901
26295,1093,898
26300,1098,901
26305,1084,897
26310,1095,894
26315,1087,893
26320,1083,891
26325,1085,888
26330,1079,885
26335,1085,883
26340,1070,885
26345,1072,882
26350,1065,877
26355,1064,875
26360,1065,874
26365,1058,876
26370,1064,868
26375,1054,875
26380,1060,868
26385,1046,866
26390,1045,866
26395,1043,865
26400,1034,861
26405,1032,860
26410,1020,862
26415,1021,858
26420,1008,862
26425,1002,856
26430,998,858
26435,997,852
26440,984,853
26445,973,856
26450,978,851
26455,965,853
26460,959,845
26465,958,844
26470,956,851
26475,942,850
26480,930,840
26485,925,848
26490,914,841
26495,911,849
26500,897,841
26505,894,839
26510,888,835
26515,875,835
26520,874,835
26525,858,832
26530,850,829
26535,844,825
26540,837,821
26545,827,824
26550,822,823
26555,816,812
26560,805,810
26565,791,807
26570,789,804
26575,791,807
26580,779,795
26585,773,792
26590,775,793
26595,772,785
26600,752,781
26605,751,775
26610,756,770
26615,752,770
26620,742,759
26625,747,757
26630,752,758
26635,738,745
26640,756,744
26645,758,738
26650,755,733
26655,750,726
26660,750,727
26665,756,717
26670,752,718
26675,755,711
26680,774,703
26685,772,704
26690,774,696
26695,781,697
26700,792,692
26705,810,685
26710,819,681
26715,822,676
26720,815,676
26725,825,668
26730,845,669
26735,853,661
26740,860,660
26745,875,662
26750,881,659
26755,887,657
26760,902,655
26765,924,658
26770,930,656
26775,936,646
26780,945,646
26785,951,652
26790,970,651
26795,987,649
26800,996,652
26805,1006,655
26810,1018,662
26815,1031,659
26820,1034,666
26825,1044,660
26830,1058,666
26835,1060,667
26840,1075,675
26845,1085,679
26850,1092,678
26855,1097,684
26860,1105,693
26865,1125,697
26870,1132,702
26875,1127,710
26880,1140,711
26885,1151,722
26890,1155,723
26895,1154,735
26900,1158,737
26905,1167,747
26910,1170,752
26915,1171,756
26920,1175,761
26925,1187,773
26930,1182,778
26935,1178,787
26940,1186,787
26945,1178,797
26950,1185,802
26955,1190,809
26960,1192,814
26965,1183,814
26970,1185,828
26975,1178,832
26980,1186,838
26985,1186,850
26990,1183,847
26995,1177,852
27000,1173,861
27005,1179,861
27010,1177,871
27015,1173,875
27020,1155,873
27025,1164,880
27030,1154,882
27035,1164,884
27040,1154,888
27045,1157,893
27050,1151,896
27055,1148,904
27060,1142,898
27065,1148,905
27070,1146,908
27075,1137,906
27080,1134,911
27085,1136,913
27090,1127,905
27095,1122,908
27100,1120,907
27105,1111,910
27110,1115,916
27115,1106,907
27120,1115,906
27125,1102,904
27130,1099,906
27135,1102,908
27140,1103,900
27145,1094,905
27150,1093,903
27155,1097,904
27160,1097,898
27165,1098,895
27170,1107,891
27175,1090,899
27180,1078,891
27185,1087,890
27190,1079,886
27195,1077,890
27200,1075,886
27205,1080,883
27210,1078,883
27215,1067,881
27220,1073,880
27225,1068,876
27230,1058,879
27235,1055,874
27240,1048,876
27245,1056,870
27250,1036,866
27255,1039,867
27260,1059,866
27265,1034,869
27270,1024,862
27275,1033,859
27280,1025,865
27285,1020,857
27290,1005,862
27295,996,858
27300,995,856
27305,1002,857
27310,996,852
27315,977,852
27320,967,851
27325,964,856
27330,964,845
27335,951,848
27340,935,843
27345,941,840
27350,925,842
27355,922,839
27360,906,839
27365,892,838
27370,892,833
27375,887,840
27380,871,832
27385,858,834
27390,859,826
27395,843,830
27400,828,825
27405,833,821
27410,834,825
27415,820,813
27420,811,818
27425,802,813
27430,797,809
27435,790,806
27440,781,794
27445,784,793
27450,778,791
27455,772,791
27460,767,783
27465,751,779
27470,756,776
27475,755,765
27480,754,771
27485,748,762
27490,749,754
27495,756,756
27500,749,748
27505,750,744
27510,751,742
27515,756,727
27520,746,733
27525,755,724
27530,766,723
27535,761,718
27540,769,715
27545,767,715
27550,777,703
27555,773,698
27560,792,692
27565,789,685
27570,808,685
27575,817,682
27580,805,673
27585,820,674
27590,826,672
27595,838,667
27600,849,668
27605,863,665
27610,867,662
27615,882,654
27620,902,657
27625,904,654
27630,913,649
27635,923,651
27640,937,659
27645,941,654
27650,958,648
27655,973,653
27660,982,652
27665,988,656
27670,1005,656
27675,1015,654
27680,1023,657
27685,1040,666
27690,1047,665
27695,1056,665
27700,1069,669
27705,1088,669
27710,1084,684
27715,1100,686
27720,1107,689
27725,1111,691
27730,1120,698
27735,1129,706
27740,1123,704
27745,1137,716
27750,1150,721
27755,1151,726
27760,1158,728
27765,1163,736
27770,1162,748
27775,1173,753
27780,1161,757
27785,1176,765
27790,1178,765
27795,1182,774
27800,1189,786
27805,1178,790
27810,1185,797
27815,1188,795
27820,1188,809
27825,1187,816
27830,1185,825
27835,1187,825
27840,1189,838
27845,1188,839
27850,1192,847
27855,1172,850
27860,1182,854
27865,1175,865
27870,1185,868
27875,1162,868
27880,1171,880
27885,1172,877
27890,1162,879
27895,1161,882
27900,1156,890
27905,1156,893
27910,1155,895
27915,1148,895
27920,1148,905
27925,1144,903
27930,1149,903
27935,1147,907
27940,1135,907
27945,1131,908
27950,1135,909
27955,1126,911
27960,1121,910
27965,1119,911
27970,1124,903
27975,1119,907
27980,1120,911
27985,1112,910
27990,1110,901
27995,1111,908
28000,1095,906
28005,1105,906
28010,1104,904
28015,1094,905
28020,1094,901
28025,1096,902
28030,1087,904
28035,1088,899
28040,1081,900
28045,1092,894
28050,1077,892
28055,1086,885
28060,1068,884
28065,1083,888
28070,1080,887
28075,1074,879
28080,1073,882
28085,1072,883
28090,1074,876
28095,1062,873
28100,1049,877
28105,1060,870
28110,1050,868
28115,1045,872
28120,1034,863
28125,1038,863
28130,1030,861
28135,1028,865
28140,1020,868
28145,1022,859
28150,1019,856
28155,1014,857
28160,994,864
28165,1000,856
28170,992,857
28175,995,854
28180,978,850
28185,966,849
28190,961,848
28195,946,855
28200,957,856
28205,934,849
28210,935,847
28215,927,847
28220,913,844
28225,893,844
28230,895,839
28235,893,836
28240,875,836
28245,875,836
28250,866,834
28255,854,834
28260,852,824
28265,851,826
28270,829,828
28275,829,818
28280,811,823
28285,817,816
28290,803,813
28295,802,806
28300,787,803
28305,797,802
28310,781,795
28315,781,793
28320,769,785
28325,773,786
28330,763,781
28335,759,778
28340,763,767
28345,746,767
28350,750,766
28355,744,756
28360,745,759
28365,746,744
28370,743,740
28375,754,734
28380,743,736
28385,747,732
28390,755,724
28395,758,718
28400,765,712
28405,758,716
28410,771,707
28415,772,704
28420,776,691
28425,783,693
28430,790,688
28435,800,682
28440,808,685
28445,819,679
28450,826,677
28455,834,675
28460,844,668
28465,842,664
28470,866,665
28475,878,657
28480,879,654
28485,891,649
28490,898,655
28495,908,653
28500,934,651
28505,934,662
28510,948,654
28515,946,658
28520,967,654
28525,972,648
28530,995,656
28535,1006,651
28540,1015,659
28545,1031,657
28550,1039,665
28555,1040,660
28560,1056,664
28565,1066,672
28570,1072,673
28575,1085,684
28580,1087,687
28585,1095,688
28590,1110,691
28595,1121,695
28600,1130,705
28605,1134,703
28610,1145,711
28615,1132,719
28620,1161,723
28625,1152,729
28630,1159,740
28635,1165,739
28640,1172,745
28645,1171,755
28650,1184,760
28655,1177,766
28660,1179,776
28665,1185,782
28670,1187,791
28675,1191,785
28680,1190,804
28685,1188,812
28690,1183,813
28695,1189,817
28700,1186,829
28705,1180,832
28710,1186,833
28715,1178,849
28720,1178,850
28725,1179,857
28730,1180,858
28735,1173,862
28740,1180,866
28745,1171,880
28750,1158,884
28755,1169,887
28760,1164,884
28765,1163,889
28770,1150,894
28775,1150,899
28780,1157,896
28785,1143,895
28790,1140,899
28795,1140,900
28800,1131,908
28805,1141,903
28810,1133,910
28815,1133,911
28820,1128,907
28825,1117,913
28830,1120,911
28835,1121,909
28840,1110,907
28845,1116,914
28850,1115,908
28855,1108,911
28860,1100,909
28865,1108,910
28870,1102,907
28875,1104,903
28880,1093,901
28885,1094,900
28890,1100,899
28895,1097,898
28900,1088,893
28905,1089,898
28910,1085,897
28915,1082,890
28920,1083,886
28925,1085,890
28930,1075,883
28935,1074,885
28940,1070,875
28945,1068,878
28950,1063,877
28955,1065,874
28960,1065,877
28965,1061,874
28970,1060,871
28975,1049,870
28980,1045,869
28985,1046,865
28990,1030,867
28995,1034,867
29000,1028,864
29005,1019,866
29010,1022,859
29015,1005,863
29020,1020,859
29025,1000,856
29030,996,856
29035,990,854
29040,982,855
29045,980,850
29050,970,849
29055,958,853
29060,955,853
29065,941,850
29070,941,846
29075,928,843
29080,927,846
29085,906,845
29090,899,845
29095,894,839
29100,893,837
29105,874,841
29110,882,832
29115,873,834
29120,858,829
29125,851,831
29130,850,823
29135,832,824
29140,831,818
29145,815,824
29150,814,814
29155,808,804
29160,798,812
29165,787,808
29170,786,803
29175,788,800
29180,774,792
29185,777,794
29190,769,789
29195,765,779
29200,757,776
29205,750,772
29210,748,765
29215,757,771
29220,756,759
29225,750,753
29230,751,748
29235,734,749
29240,744,740
29245,748,735
29250,757,727
29255,748,727
29260,753,717
29265,756,715
29270,764,709
29275,764,709
29280,776,704
29285,782,699
29290,779,694
29295,798,688
29300,801,685
29305,801,678
29310,816,672
29315,816,668
29320,831,665
29325,835,668
29330,850,663
29335,861,661
29340,872,664
29345,884,657
29350,890,655
29355,905,653
29360,914,655
29365,926,656
29370,930,650
29375,945,650
29380,952,653
29385,968,651
29390,976,651
29395,988,655
29400,1005,651
29405,1023,658
29410,1024,665
29415,1040,666
29420,1048,658
29425,1061,665
29430,1073,668
29435,1068,677
29440,1080,680
29445,1086,686
29450,1102,688
29455,1108,694
29460,1121,699
29465,1121,701
29470,1132,706
29475,1146,711
29480,1148,719
29485,1159,723
29490,1157,732
29495,1164,737
29500,1167,742
29505,1175,747
29510,1170,757
29515,1174,764
29520,1178,766
29525,1181,776
29530,1183,782
29535,1183,787
29540,1186,801
29545,1190,802
29550,1188,806
29555,1193,816
29560,1197,823
29565,1190,828
29570,1189,832
29575,1184,839
29580,1188,847
29585,1186,847
29590,1175,854
29595,1173,860
29600,1186,864
29605,1174,875
29610,1172,874
29615,1163,874
29620,1174,881
29625,1169,886
29630,1158,886
29635,1160,889
29640,1155,898
29645,1157,900
29650,1144,895
29655,1143,904
29660,1143,901
29665,1152,906
29670,1144,911
29675,1136,909
29680,1132,910
29685,1119,903
29690,1128,908
29695,1117,906
29700,1112,909
29705,1118,906
29710,1102,908
29715,1119,910
29720,1115,909
29725,1111,915
29730,1104,909
29735,1105,909
29740,1096,904
29745,1093,907
29750,1098,902
29755,1095,899
29760,1088,905
29765,1099,897
29770,1086,894
29775,1076,893
29780,1086,891
29785,1076,890
29790,1084,887
29795,1081,883
29800,1073,887
29805,1073,881
29810,1068,880
29815,1071,879
29820,1063,875
29825,1060,878
29830,1061,870
29835,1057,866
29840,1051,872
29845,1044,874
29850,1039,868
29855,1046,865
29860,1034,868
29865,1017,865
29870,1027,868
29875,1015,857
29880,1014,860
29885,1006,860
29890,1001,860
29895,994,855
29900,987,853
29905,988,854
29910,981,857
29915,972,851
29920,971,850
29925,960,847
29930,944,852
29935,933,850
29940,941,842
29945,920,848
29950,925,844
29955,909,839
29960,901,840
29965,887,838
29970,880,838
29975,875,833
29980,866,835
29985,854,831
29990,855,827
29995,844,823
