timestamp_ms,ir_finger,ir_toe
0,1051,701
5,1058,702
10,1051,697
15,1075,692
20,1081,687
25,1098,690
30,1110,687
35,1107,688
40,1129,685
45,1120,689
50,1134,683
55,1138,688
60,1146,685
65,1145,688
70,1173,692
75,1169,688
80,1172,691
85,1173,696
90,1170,694
95,1182,699
100,1184,705
105,1178,709
110,1191,708
115,1184,716
120,1188,716
125,1189,724
130,1193,723
135,1188,728
140,1181,734
145,1192,732
150,1171,740
155,1186,746
160,1188,754
165,1186,755
170,1180,763
175,1167,773
180,1171,778
185,1171,779
190,1161,786
195,1157,794
200,1160,794
205,1157,799
210,1152,801
215,1152,811
220,1153,822
225,1141,822
230,1131,824
235,1125,836
240,1134,834
245,1122,841
250,1126,840
255,1108,846
260,1122,849
265,1112,853
270,1116,863
275,1109,861
280,1112,862
285,1101,869
290,1099,863
295,1103,880
300,1093,876
305,1099,872
310,1089,880
315,1081,882
320,1085,878
325,1089,881
330,1091,878
335,1083,882
340,1082,880
345,1079,879
350,1080,881
355,1089,879
360,1065,880
365,1065,881
370,1070,881
375,1064,882
380,1057,882
385,1053,881
390,1052,872
395,1050,876
400,1041,876
405,1038,877
410,1029,876
415,1036,879
420,1026,867
425,1015,866
430,1010,865
435,1005,867
440,1003,867
445,993,864
450,987,860
455,973,858
460,973,857
465,954,853
470,954,854
475,949,854
480,935,848
485,930,854
490,917,850
495,914,847
500,906,852
505,897,851
510,885,849
515,874,847
520,857,842
525,850,844
530,854,839
535,851,840
540,827,840
545,829,840
550,821,836
555,804,836
560,807,833
565,796,833
570,794,835
575,778,830
580,779,830
585,772,829
590,775,830
595,765,832
600,757,828
605,758,827
610,747,824
615,747,820
620,744,819
625,742,820
630,744,816
635,748,812
640,749,808
645,762,805
650,756,804
655,764,794
660,759,801
665,770,797
670,780,797
675,778,790
680,776,789
685,786,783
690,804,774
695,808,777
700,815,771
705,821,771
710,837,764
715,847,756
720,850,757
725,861,754
730,879,743
735,884,739
740,897,738
745,910,735
750,925,739
755,943,731
760,937,727
765,961,721
770,970,715
775,985,711
780,991,711
785,1006,708
790,1025,705
795,1035,706
800,1038,700
805,1061,698
810,1068,699
815,1073,688
820,1087,686
825,1086,689
830,1112,684
835,1108,686
840,1121,684
845,1131,685
850,1131,691
855,1138,687
860,1146,688
865,1151,693
870,1145,689
875,1160,687
880,1161,690
885,1167,691
890,1175,694
895,1184,699
900,1187,699
905,1190,703
910,1178,711
915,1178,710
920,1191,713
925,1189,727
930,1193,730
935,1194,730
940,1188,737
945,1183,734
950,1182,749
955,1173,746
960,1174,751
965,1187,762
970,1170,762
975,1168,769
980,1173,773
985,1168,779
990,1163,787
995,1164,785
1000,1162,796
1004,1157,797
1010,1154,804
1014,1144,809
1020,1136,818
1025,1134,826
1030,1137,827
1035,1133,834
1040,1137,837
1045,1131,843
1050,1122,846
1055,1120,849
1060,1120,852
1065,1116,857
1070,1121,856
1075,1109,857
1080,1108,866
1085,1113,873
1090,1112,874
1095,1103,877
1100,1098,876
1105,1094,883
1110,1097,877
1115,1087,882
1120,1106,881
1125,1090,881
1130,1097,885
1135,1092,884
1140,1083,879
1145,1076,881
1150,1084,880
1155,1082,888
1160,1071,882
1165,1071,882
1170,1061,882
1175,1064,883
1180,1057,882
1185,1059,880
1190,1054,876
1195,1059,877
1200,1045,879
1205,1035,877
1210,1029,870
1215,1023,876
1220,1030,870
1225,1023,868
1230,1006,864
1235,1002,863
1240,996,859
1245,994,860
1250,994,862
1255,981,863
1260,972,853
1265,962,855
1270,951,864
1275,946,857
1280,937,854
1285,929,850
1290,915,847
1295,911,848
1300,899,849
1305,891,847
1310,877,848
1315,876,850
1320,860,849
1325,854,845
1330,845,843
1335,834,843
1340,835,836
1345,821,837
1350,810,835
1355,803,840
1360,797,834
1365,790,837
1370,794,835
1375,780,831
1380,769,838
1385,776,825
1390,768,829
1395,756,831
1400,754,829
1405,751,825
1410,761,828
1415,742,817
1420,752,817
1425,744,819
1430,755,819
1435,742,810
1440,747,807
1445,753,807
1450,755,810
1455,760,806
1460,768,798
1465,762,799
1470,773,798
1475,775,793
1480,786,784
1485,791,782
1490,791,783
1495,813,774
1500,814,774
1505,820,771
1510,832,766
1515,836,761
1520,854,756
1525,873,751
1530,881,745
1535,889,743
1540,896,741
1545,913,736
1550,933,732
1555,940,729
1560,944,730
1565,961,726
1570,970,722
1575,983,712
1580,989,708
1585,999,713
1590,1014,705
1595,1027,705
1600,1048,699
1605,1059,704
1610,1071,692
1615,1082,692
1620,1089,690
1625,1088,691
1630,1101,693
1635,1112,683
1640,1122,691
1645,1124,690
1650,1132,686
1655,1147,688
1660,1148,686
1665,1148,683
1670,1160,686
1675,1168,692
1680,1174,692
1685,1174,698
1690,1181,699
1695,1175,697
1700,1186,701
1705,1182,704
1710,1180,706
1715,1196,708
1720,1185,712
1725,1180,722
1730,1179,727
1735,1192,733
1740,1186,739
1745,1182,736
1750,1182,737
1755,1187,747
1760,1185,755
1765,1179,756
1770,1174,758
1775,1172,769
1780,1171,777
1785,1176,777
1790,1170,784
1795,1171,794
1800,1161,797
1805,1160,807
1810,1141,806
1815,1145,821
1820,1143,818
1825,1137,820
1830,1132,822
1835,1140,831
1840,1128,839
1845,1141,843
1850,1123,849
1855,1115,844
1860,1116,847
1865,1116,861
1870,1106,859
1875,1112,864
1880,1110,862
1885,1116,867
1890,1099,872
1895,1105,869
1900,1108,870
1905,1097,880
1910,1100,881
1915,1092,880
1920,1091,883
1925,1089,878
1930,1089,883
1935,1079,888
1940,1082,880
1945,1089,882
1950,1082,881
1955,1075,885
1960,1077,883
1965,1063,887
1970,1060,882
1975,1066,881
1980,1061,882
1985,1059,880
1990,1043,874
1995,1050,876
2000,1036,877
2005,1037,871
2009,1036,875
2015,1029,871
2020,1019,871
2025,1019,866
2029,1019,872
2035,1005,871
2040,997,859
2045,986,861
2050,989,858
2055,986,867
2060,968,858
2065,964,856
2070,955,862
2075,947,854
2080,932,856
2085,927,850
2090,930,852
2095,908,847
2100,899,850
2105,905,850
2110,878,849
2115,879,845
2120,871,847
2125,855,838
2130,856,843
2135,838,843
2140,828,841
2145,823,834
2150,820,835
2155,804,838
2160,812,838
2165,798,836
2170,785,839
2175,768,835
2180,781,837
2185,769,834
2190,769,831
2195,766,831
2200,759,832
2205,756,826
2210,753,829
2215,757,822
2220,746,824
2225,743,818
2230,747,811
2235,745,810
2240,749,811
2245,752,805
2250,760,808
2255,754,800
2260,760,799
2265,771,796
2270,763,791
2275,778,791
2280,777,786
2285,787,780
2290,802,780
2295,803,775
2300,815,773
2305,823,768
2310,831,763
2315,841,760
2320,843,760
2325,860,752
2330,872,750
2335,890,746
2340,894,746
2345,910,736
2350,918,735
2355,926,722
2360,943,721
2365,943,723
2370,964,726
2375,986,714
2380,994,708
2385,1008,705
2390,1019,709
2395,1028,703
2400,1041,697
2405,1041,693
2410,1067,690
2415,1069,695
2420,1089,693
2425,1088,688
2430,1090,690
2435,1107,686
2440,1121,687
2445,1124,693
2450,1134,683
2455,1145,688
2460,1145,685
2465,1152,690
2470,1162,692
2475,1167,690
2480,1167,696
2485,1169,693
2490,1169,697
2495,1182,695
2500,1188,704
2505,1187,707
2510,1184,708
2515,1191,708
2520,1183,712
2525,1181,714
2530,1188,720
2535,1193,729
2540,1177,732
2545,1190,737
2550,1180,735
2555,1184,743
2560,1181,752
2565,1186,757
2570,1176,770
2575,1168,767
2580,1168,780
2585,1166,779
2590,1162,783
2595,1168,785
2600,1157,795
2605,1156,800
2610,1151,807
2615,1146,806
2620,1139,813
2625,1143,821
2630,1137,825
2635,1137,831
2640,1130,838
2645,1128,835
2650,1123,842
2655,1122,850
2660,1126,847
2665,1116,857
2670,1110,856
2675,1109,865
2680,1106,866
2685,1106,874
2690,1109,872
2695,1098,877
2700,1104,879
2705,1099,878
2710,1095,875
2715,1095,878
2720,1090,881
2725,1094,882
2730,1089,881
2735,1081,880
2740,1075,883
2745,1078,887
2750,1076,882
2755,1069,888
2760,1069,886
2765,1061,878
2770,1076,884
2775,1050,884
2780,1060,876
2785,1059,881
2790,1046,886
2795,1050,881
2800,1037,878
2805,1028,872
2810,1046,873
2815,1028,875
2820,1019,867
2825,1022,865
2830,1006,871
2835,1003,869
2840,1005,865
2845,993,862
2850,988,862
2855,986,860
2860,966,858
2865,975,858
2870,955,857
2875,953,856
2880,935,858
2885,931,850
2890,920,850
2895,915,848
2900,906,847
2905,879,848
2910,889,846
2915,869,842
2920,871,847
2925,865,845
2930,849,846
2935,839,845
2940,834,839
2945,820,844
2950,821,842
2955,810,844
2960,797,836
2965,800,841
2970,791,834
2975,789,830
2980,775,830
2985,778,833
2990,768,828
2995,762,828
3000,754,822
3005,752,826
3010,744,826
3015,748,831
3020,750,812
3025,744,816
3030,745,817
3035,742,816
3040,742,817
3045,753,809
3050,757,805
3055,764,805
3060,765,803
3065,766,798
3070,775,795
3075,772,791
3080,778,788
3085,792,782
3090,790,782
3095,797,779
3100,813,778
3105,828,767
3110,826,765
3115,839,761
3120,842,762
3125,857,755
3130,875,748
3135,888,743
3140,889,740
3145,911,744
3150,918,736
3155,932,728
3160,940,728
3165,957,715
3170,966,719
3175,975,717
3180,994,715
3185,1005,716
3190,1015,705
3195,1030,696
3200,1040,701
3205,1048,702
3210,1064,700
3215,1075,695
3220,1078,689
3225,1090,688
3230,1097,686
3235,1110,689
3240,1115,690
3245,1118,689
3250,1141,686
3255,1142,687
3260,1149,685
3265,1151,692
3270,1162,694
3275,1155,694
3280,1174,693
3285,1182,694
3290,1170,693
3295,1172,695
3300,1178,695
3305,1183,708
3310,1185,708
3315,1191,712
3320,1182,719
3325,1183,720
3330,1184,725
3335,1188,731
3340,1181,735
3345,1184,731
3350,1185,744
3355,1183,748
3360,1182,758
3365,1182,755
3370,1171,761
3375,1182,768
3380,1168,769
3385,1161,778
3390,1171,781
3395,1162,785
3400,1151,789
3405,1165,796
3410,1159,808
3415,1150,807
3420,1147,813
3425,1142,819
3430,1138,830
3435,1140,830
3440,1133,832
3445,1128,840
3450,1127,842
3455,1123,845
3460,1117,847
3465,1107,855
3470,1116,857
3475,1111,859
3480,1103,859
3485,1100,873
3490,1104,870
3495,1109,869
3500,1099,873
3505,1092,878
3510,1096,879
3515,1094,881
3520,1097,882
3525,1086,885
3530,1091,882
3535,1080,877
3540,1081,885
3545,1074,882
3550,1081,885
3555,1074,884
3560,1077,883
3565,1068,883
3570,1072,882
3575,1059,874
3580,1068,881
3585,1052,876
3590,1046,877
3595,1042,882
3600,1051,880
3605,1045,874
3610,1045,877
3615,1023,873
3620,1026,870
3625,1021,874
3630,1021,864
3635,1007,864
3640,996,866
3645,994,864
3650,985,862
3655,985,860
3660,976,858
3665,965,856
3670,955,854
3675,952,863
3680,936,856
3685,938,854
3690,927,854
3695,912,850
3700,906,850
3705,883,849
3710,893,848
3715,875,846
3720,868,845
3725,859,847
3730,849,843
3735,840,841
3740,833,838
3745,832,843
3750,813,840
3755,819,841
3760,805,832
3765,803,837
3770,785,834
3775,787,837
3780,776,829
3785,766,831
3790,768,833
3795,760,830
3800,765,826
3805,752,828
3810,755,823
3815,745,820
3820,745,823
3825,755,816
3830,749,817
3835,734,812
3840,754,813
3845,758,813
3850,751,805
3855,757,804
3860,757,805
3865,765,802
3870,778,790
3875,781,791
3880,783,788
3885,795,781
3890,797,778
3895,803,780
3900,814,776
3905,829,775
3910,827,762
3915,846,761
3920,849,762
3925,862,756
3930,873,748
3935,880,745
3940,894,746
3945,904,734
3950,924,727
3955,937,729
3960,940,725
3965,956,722
3970,961,718
3975,981,716
3980,988,713
3985,1002,703
3990,1026,706
3995,1024,702
4000,1040,698
4005,1039,700
4010,1060,694
4014,1074,693
4019,1089,692
4025,1082,688
4030,1094,693
4035,1109,681
4040,1113,687
4045,1120,688
4050,1131,690
4054,1136,688
4059,1147,687
4065,1157,691
4070,1158,685
4075,1164,689
4080,1165,692
4085,1174,698
4090,1168,692
4094,1177,705
4100,1183,701
4105,1184,705
4110,1184,707
4115,1183,713
4120,1187,713
4125,1187,713
4130,1189,723
4135,1189,730
4140,1187,734
4145,1186,736
4150,1184,742
4155,1188,745
4160,1176,748
4165,1178,752
4170,1167,759
4175,1162,761
4180,1170,771
4185,1164,781
4190,1167,783
4195,1155,791
4200,1163,793
4205,1158,801
4210,1159,799
4215,1153,811
4220,1137,812
4225,1143,819
4230,1130,827
4235,1132,829
4240,1138,829
4245,1132,839
4250,1129,841
4255,1127,844
4260,1122,848
4265,1116,849
4270,1112,856
4275,1119,858
4280,1112,868
4285,1115,865
4290,1105,867
4295,1102,874
4300,1101,876
4305,1095,877
4310,1102,876
4315,1098,886
4320,1092,882
4325,1091,882
4330,1082,882
4335,1083,879
4340,1086,878
4345,1082,880
4350,1074,882
4355,1079,885
4360,1066,886
4365,1077,885
4370,1066,886
4375,1066,881
4380,1067,883
4385,1061,879
4390,1057,885
4395,1056,873
4400,1048,878
4405,1042,877
4410,1041,874
4415,1038,870
4420,1021,870
4425,1025,869
4430,1019,865
4435,1006,868
4440,1010,863
4445,999,862
4450,1000,865
4455,970,852
4460,971,860
4465,963,855
4470,968,858
4475,945,858
4480,936,851
4485,940,849
4490,923,853
4495,918,856
4500,903,847
4505,896,842
4510,890,849
4515,883,845
4520,867,845
4525,862,846
4530,858,841
4535,833,838
4540,830,841
4545,831,839
4550,827,842
4555,818,833
4560,815,840
4565,792,839
4570,792,837
4575,782,837
4580,781,836
4585,774,831
4590,759,832
4595,768,832
4600,757,830
4605,750,832
4610,752,820
4615,754,823
4620,749,819
4625,746,817
4630,743,814
4635,744,814
4640,750,815
4645,751,803
4650,744,805
4655,758,802
4660,749,794
4665,768,793
4670,766,798
4675,778,791
4680,782,790
4685,785,785
4690,792,779
4695,807,781
4700,824,771
4705,823,771
4710,827,768
4715,843,766
4720,839,751
4725,855,756
4730,868,749
4735,878,746
4740,883,749
4745,902,739
4750,920,737
4755,930,731
4760,944,725
4765,954,720
4770,967,723
4775,982,717
4780,981,716
4785,1002,713
4790,1006,705
4795,1020,703
4800,1028,697
4805,1051,702
4810,1051,697
4815,1069,690
4820,1077,696
4825,1095,691
4830,1098,687
4835,1095,687
4840,1123,689
4845,1135,691
4850,1132,687
4855,1146,685
4860,1144,689
4865,1141,689
4870,1164,688
4875,1161,690
4880,1160,695
4885,1171,695
4890,1168,695
4895,1181,697
4900,1181,705
4905,1181,701
4910,1175,704
4915,1184,710
4920,1197,711
4925,1195,720
4930,1186,722
4935,1192,729
4940,1186,731
4945,1184,735
4950,1183,736
4955,1190,741
4960,1186,750
4965,1180,755
4970,1174,758
4975,1175,767
4980,1171,773
4985,1168,778
4990,1158,786
4995,1170,786
5000,1159,792
5005,1154,795
5010,1161,800
5015,1145,810
5020,1139,812
5025,1138,817
5030,1133,823
5035,1141,824
5040,1135,830
5045,1124,836
5050,1127,847
5055,1123,851
5060,1115,849
5065,1123,854
5070,1124,859
5075,1115,859
5080,1111,861
5085,1104,872
5090,1110,874
5095,1098,872
5100,1098,880
5105,1105,878
5110,1099,879
5115,1091,880
5120,1093,883
5125,1087,884
5130,1094,885
5135,1089,880
5140,1088,885
5145,1081,886
5150,1085,882
5155,1077,887
5160,1071,880
5165,1064,877
5170,1076,882
5175,1064,885
5180,1068,877
5185,1057,877
5190,1049,883
5195,1052,878
5200,1054,878
5205,1037,881
5210,1036,875
5215,1030,871
5220,1026,868
5225,1014,865
5230,1013,869
5235,1008,869
5240,1003,866
5245,995,868
5250,985,866
5255,984,854
5260,979,859
5265,970,861
5270,964,855
5275,945,854
5280,935,852
5285,934,853
5290,928,851
5295,918,852
5300,909,853
5305,904,845
5310,897,852
5315,879,846
5320,877,842
5325,854,844
5330,860,840
5335,852,843
5340,841,838
5345,836,838
5350,819,840
5355,824,834
5360,809,833
5365,806,837
5370,797,838
5375,782,838
5380,786,838
5385,778,831
5390,773,830
5395,757,827
5400,761,834
5405,761,829
5410,765,820
5415,749,821
5420,742,821
5425,754,819
5430,744,820
5435,748,816
5440,746,810
5445,755,812
5450,754,806
5455,753,803
5460,766,804
5465,756,795
5470,757,799
5475,773,797
5480,771,785
5485,781,789
5490,797,783
5495,798,778
5500,805,772
5505,822,771
5510,828,771
5515,840,767
5520,841,759
5525,855,753
5530,864,759
5535,881,743
5540,886,741
5545,902,732
5550,914,736
5555,925,729
5560,945,733
5565,953,719
5570,968,718
5575,976,722
5580,982,711
5585,997,711
5590,1012,707
5595,1039,701
5600,1030,702
5605,1044,700
5610,1049,697
5615,1066,698
5620,1069,692
5625,1091,688
5630,1097,692
5635,1102,688
5640,1117,689
5645,1120,685
5650,1127,689
5655,1139,685
5660,1150,683
5665,1151,688
5670,1158,689
5675,1159,696
5680,1164,689
5685,1175,689
5690,1176,695
5695,1183,694
5700,1173,700
5705,1178,702
5710,1185,709
5715,1187,710
5720,1182,715
5725,1187,715
5730,1182,718
5735,1190,728
5740,1183,727
5745,1176,734
5750,1186,737
5755,1190,747
5760,1180,747
5765,1186,757
5770,1184,757
5775,1181,769
5780,1178,772
5785,1160,776
5790,1161,777
5795,1156,790
5800,1156,787
5805,1151,801
5810,1164,802
5815,1147,808
5820,1152,818
5825,1157,821
5830,1145,827
5835,1135,826
5840,1128,831
5845,1140,842
5850,1134,844
5855,1120,842
5860,1113,843
5865,1118,847
5870,1109,860
5875,1119,861
5880,1112,859
5885,1103,871
5890,1103,872
5895,1101,872
5900,1102,872
5905,1099,879
5910,1094,876
5915,1096,879
5920,1091,880
5925,1093,884
5930,1088,880
5935,1088,879
5940,1081,889
5945,1089,881
5950,1075,883
5955,1069,883
5960,1067,880
5965,1075,884
5970,1074,885
5975,1064,877
5980,1062,883
5985,1056,881
5990,1054,881
5995,1055,875
6000,1058,877
6005,1039,873
6010,1039,872
6015,1028,876
6020,1024,872
6025,1023,872
6030,1016,869
6035,996,864
6040,999,866
6045,995,864
6050,1000,860
6055,975,863
6060,972,853
6065,972,856
6070,962,855
6075,944,856
6080,940,853
6085,936,851
6090,923,850
6095,918,857
6100,907,849
6105,892,846
6110,892,848
6115,879,838
6120,879,846
6125,866,842
6130,854,838
6135,836,845
6140,836,839
6145,822,838
6150,821,837
6155,821,839
6160,801,839
6165,803,837
6170,794,837
6175,789,837
6180,783,832
6185,766,833
6190,765,829
6195,772,826
6200,763,826
6205,746,828
6210,760,824
6215,745,827
6220,753,823
6225,741,816
6230,747,816
6235,744,816
6240,750,816
6245,748,807
6250,751,810
6255,756,810
6260,766,806
6265,768,801
6270,774,799
6275,769,790
6280,774,787
6285,784,788
6290,789,781
6295,797,781
6300,806,781
6305,825,774
6310,824,770
6315,840,763
6320,844,755
6325,851,753
6330,872,754
6335,878,746
6340,886,744
6345,894,741
6350,922,733
6355,935,729
6360,946,724
6365,955,723
6370,961,718
6375,974,711
6380,973,712
6385,1004,710
6390,1016,704
6395,1021,709
6400,1028,701
6405,1037,691
6410,1047,696
6415,1052,695
6420,1072,691
6425,1086,691
6430,1087,695
6435,1106,686
6440,1111,686
6445,1123,688
6450,1127,684
6455,1136,686
6460,1145,687
6465,1153,693
6470,1155,696
6475,1160,689
6480,1158,689
6485,1164,695
6490,1173,698
6495,1171,699
6500,1185,704
6505,1182,703
6510,1192,705
6515,1192,710
6520,1188,714
6525,1191,712
6530,1191,717
6535,1190,724
6540,1192,728
6545,1190,738
6550,1179,740
6555,1177,749
6560,1180,752
6565,1183,755
6570,1181,760
6575,1162,766
6580,1174,769
6585,1167,774
6590,1167,784
6595,1163,786
6600,1150,794
6605,1161,799
6610,1153,808
6615,1152,807
6620,1141,811
6625,1145,824
6630,1137,824
6635,1139,824
6640,1133,830
6645,1131,832
6650,1132,836
6655,1132,850
6660,1117,850
6665,1117,855
6670,1115,854
6675,1118,858
6680,1103,860
6685,1107,866
6690,1102,867
6695,1100,868
6700,1102,872
6705,1101,877
6710,1104,875
6715,1088,882
6720,1098,877
6725,1087,886
6730,1094,887
6735,1087,884
6740,1098,881
6745,1084,885
6750,1081,886
6755,1068,885
6760,1080,885
6765,1070,879
6770,1070,884
6775,1072,880
6780,1060,884
6785,1059,881
6790,1050,883
6795,1052,876
6800,1057,881
6805,1039,874
6810,1043,873
6815,1033,875
6820,1030,869
6825,1028,871
6830,1019,870
6835,1007,869
6840,996,866
6845,994,865
6850,992,868
6855,987,860
6860,981,858
6865,972,863
6870,958,855
6875,950,858
6880,947,853
6885,934,859
6890,923,854
6895,918,852
6900,907,852
6905,897,848
6910,885,851
6915,887,849
6920,863,842
6925,858,843
6930,863,846
6935,852,841
6940,829,842
6945,835,840
6950,819,844
6955,818,835
6960,808,834
6965,791,838
6970,785,838
6975,772,827
6980,780,835
6985,780,833
6990,777,832
6995,757,825
7000,760,828
7005,747,825
7010,753,821
7015,759,824
7020,754,819
7025,751,816
7030,741,818
7035,752,818
7040,759,810
7045,749,810
7050,754,809
7055,754,806
7060,749,803
7065,759,803
7070,769,793
7075,770,794
7080,783,791
7085,787,793
7090,792,785
7095,802,775
7100,810,775
7105,814,775
7110,824,765
7115,837,768
7120,849,757
7125,860,755
7130,859,759
7135,879,746
7140,885,745
7145,896,738
7150,915,733
7155,928,732
7160,928,732
7165,948,717
7170,960,720
7175,987,717
7180,984,713
7185,992,709
7190,997,711
7195,1019,705
7200,1027,708
7205,1049,703
7210,1043,699
7215,1069,694
7220,1072,695
7225,1070,688
7230,1098,688
7235,1100,686
7240,1117,689
7245,1119,680
7250,1131,684
7255,1126,693
7260,1150,686
7265,1150,689
7270,1160,691
7275,1167,692
7280,1163,689
7285,1169,695
7290,1172,698
7295,1180,697
7300,1177,703
7305,1179,701
7310,1191,703
7315,1187,709
7320,1193,711
7325,1182,713
7330,1194,722
7335,1183,721
7340,1185,733
7345,1187,739
7350,1187,739
7355,1181,743
7360,1179,750
7365,1184,750
7370,1182,757
7375,1179,764
7380,1165,772
7385,1172,770
7390,1167,784
7395,1164,793
7400,1148,792
7405,1152,796
7410,1152,799
7415,1159,808
7420,1156,811
7425,1139,816
7430,1141,827
7435,1135,830
7440,1130,836
7445,1130,836
7450,1124,843
7455,1127,850
7460,1121,847
7465,1115,855
7470,1116,849
7475,1105,862
7480,1099,862
7485,1100,865
7490,1104,869
7495,1099,876
7500,1103,869
7505,1096,873
7510,1095,879
7515,1092,881
7520,1097,875
7525,1083,880
7530,1081,880
7535,1088,884
7540,1089,885
7545,1090,881
7550,1082,884
7555,1083,887
7560,1073,885
7565,1074,883
7570,1072,879
7575,1066,881
7580,1060,880
7585,1069,879
7590,1056,881
7595,1064,880
7600,1053,881
7605,1043,876
7610,1030,871
7615,1041,874
7620,1031,873
7625,1035,869
7630,1016,872
7635,1005,866
7640,1008,864
7645,998,863
7650,984,869
7655,983,858
7660,984,857
7665,957,855
7670,957,853
7675,959,856
7680,942,853
7685,934,855
7690,927,853
7695,920,856
7700,909,850
7705,898,845
7710,885,848
7715,881,855
7720,877,845
7725,850,846
7730,857,842
7735,841,839
7740,835,838
7745,836,845
7750,827,836
7755,807,841
7760,807,839
7765,805,832
7770,793,833
7775,780,830
7780,775,834
7785,770,834
7790,771,834
7795,764,830
7800,758,828
7805,754,830
7810,752,820
7815,757,821
7820,756,823
7825,744,821
7830,741,819
7835,741,814
7840,746,815
7845,752,813
7850,756,805
7855,758,805
7860,757,806
7865,763,799
7870,769,800
7875,775,797
7880,782,786
7885,783,788
7890,800,783
7895,801,782
7900,811,776
7905,816,772
7910,826,764
7915,833,761
7920,841,762
7925,853,754
7930,871,755
7935,876,750
7940,883,750
7945,901,744
7950,910,736
7955,919,733
7960,935,731
7965,939,722
7970,946,724
7975,973,717
7980,974,713
7985,996,713
7990,1005,711
7995,1021,708
8000,1032,703
8005,1041,699
8010,1056,699
8015,1060,693
8020,1071,693
8025,1081,691
8029,1097,688
8035,1094,692
8039,1110,686
8045,1114,689
8050,1122,681
8055,1142,682
8060,1143,685
8064,1156,690
8070,1156,691
8074,1157,694
8080,1158,685
8085,1168,692
8090,1173,698
8095,1173,698
8100,1177,700
8105,1173,703
8109,1178,706
8115,1184,706
8119,1188,711
8125,1184,717
8130,1194,721
8135,1190,722
8140,1189,730
8145,1192,728
8150,1191,733
8154,1189,742
8160,1189,749
8164,1186,753
8170,1184,757
8175,1168,760
8180,1172,769
8185,1162,775
8189,1168,783
8195,1164,785
8200,1165,796
8205,1155,796
8210,1157,803
8215,1154,803
8220,1151,811
8225,1137,811
8230,1128,819
8235,1130,832
8240,1130,831
8245,1143,836
8250,1122,844
8255,1124,843
8260,1126,848
8265,1130,857
8270,1113,855
8275,1106,859
8280,1113,863
8285,1110,862
8290,1110,872
8295,1106,870
8300,1108,869
8305,1090,873
8310,1096,876
8315,1102,880
8320,1096,881
8325,1089,879
8330,1098,883
8335,1094,884
8340,1084,882
8345,1080,883
8350,1077,881
8355,1080,885
8360,1073,880
8365,1076,888
8370,1072,881
8375,1065,884
8380,1061,884
8385,1056,881
8390,1055,882
8395,1055,875
8400,1052,871
8405,1044,879
8410,1038,873
8415,1045,872
8420,1024,870
8425,1014,874
8430,1014,876
8435,1012,865
8440,1006,864
8445,989,864
8450,991,864
8455,983,858
8460,981,860
8465,962,856
8470,954,853
8475,954,860
8480,941,849
8485,935,856
8490,915,845
8495,922,853
8500,915,848
8505,897,849
8510,890,846
8515,885,841
8520,883,841
8525,868,841
8530,857,847
8535,851,837
8540,837,849
8545,827,841
8550,821,844
8555,817,841
8560,808,833
8565,798,833
8570,796,832
8575,793,837
8580,783,834
8585,775,832
8590,760,837
8595,772,825
8600,755,830
8605,760,827
8610,754,824
8615,749,824
8620,752,827
8625,744,823
8630,743,812
8635,755,819
8640,742,812
8645,755,808
8650,749,804
8655,759,806
8660,749,802
8665,754,800
8670,768,797
8675,772,795
8680,771,793
8685,777,786
8690,789,786
8695,794,778
8700,790,777
8705,807,775
8710,832,765
8715,832,765
8720,838,763
8725,850,757
8730,863,750
8735,880,743
8740,886,748
8745,899,741
8750,906,738
8755,913,728
8760,936,726
8765,942,727
8770,962,721
8775,969,720
8780,972,717
8785,993,710
8790,1008,709
8795,1026,706
8800,1019,706
8805,1042,700
8810,1048,696
8815,1058,696
8820,1072,694
8825,1075,689
8830,1093,695
8835,1103,694
8840,1113,688
8845,1122,688
8850,1127,690
8855,1139,681
8860,1143,690
8865,1147,685
8870,1159,686
8875,1158,685
8880,1173,689
8885,1170,691
8890,1182,696
8895,1180,697
8900,1189,697
8905,1185,706
8910,1187,705
8915,1187,704
8920,1195,717
8925,1193,716
8930,1188,720
8935,1185,723
8940,1190,731
8945,1189,734
8950,1182,734
8955,1181,745
8960,1185,751
8965,1174,753
8970,1173,759
8975,1167,764
8980,1178,768
8985,1173,771
8990,1170,778
8995,1166,780
9000,1150,792
9005,1170,792
9010,1153,801
9015,1145,810
9020,1139,807
9025,1135,819
9030,1143,820
9035,1146,824
9040,1139,829
9045,1128,836
9050,1125,835
9055,1125,844
9060,1127,848
9065,1128,854
9070,1112,860
9075,1116,861
9080,1114,861
9085,1111,867
9090,1097,866
9095,1110,878
9100,1097,871
9105,1103,875
9110,1104,877
9115,1106,878
9120,1093,881
9125,1092,884
9130,1101,879
9135,1091,888
9140,1085,887
9145,1079,879
9150,1071,885
9155,1075,888
9160,1082,879
9165,1075,878
9170,1066,881
9175,1073,888
9180,1067,875
9185,1060,877
9190,1051,880
9195,1051,878
9200,1047,875
9205,1045,878
9210,1036,869
9215,1035,873
9220,1029,874
9225,1026,869
9230,1017,866
9235,1016,864
9240,1006,864
9245,1007,866
9250,993,863
9255,985,864
9260,986,859
9265,970,857
9270,963,859
9275,954,858
9280,944,856
9285,936,849
9290,928,847
9295,923,852
9300,919,848
9305,908,848
9310,893,847
9315,876,853
9320,868,842
9325,863,842
9330,861,843
9335,850,843
9340,841,843
9345,837,845
9350,829,837
9355,820,838
9360,809,838
9365,802,834
9370,796,838
9375,798,839
9380,788,830
9385,779,837
9390,774,830
9395,767,831
9400,764,827
9405,754,827
9410,760,826
9415,749,821
9420,754,820
9425,745,821
9430,747,815
9435,747,810
9440,739,815
9445,757,808
9450,748,807
9455,746,809
9460,750,804
9465,764,799
9470,761,803
9475,775,791
9480,778,791
9485,783,788
9490,789,779
9495,807,778
9500,811,778
9505,822,775
9510,828,776
9515,828,760
9520,849,757
9525,854,757
9530,864,755
9535,862,757
9540,881,745
9545,889,739
9550,899,734
9555,920,739
9560,933,732
9565,942,723
9570,957,727
9575,970,716
9580,970,714
9585,1001,709
9590,1003,708
9595,1018,702
9600,1023,699
9605,1046,702
9610,1051,695
9615,1063,691
9620,1074,697
9625,1080,693
9630,1089,691
9635,1111,693
9640,1108,688
9645,1115,692
9650,1118,689
9655,1129,690
9660,1134,687
9665,1141,693
9670,1154,686
9675,1158,685
9680,1167,689
9685,1172,689
9690,1169,689
9695,1177,696
9700,1178,698
9705,1176,703
9710,1191,707
9715,1179,713
9720,1187,709
9725,1194,712
9730,1181,718
9735,1184,725
9740,1197,725
9745,1186,737
9750,1189,736
9755,1179,740
9760,1190,748
9765,1181,753
9770,1169,752
9775,1169,764
9780,1176,768
9785,1176,776
9790,1170,778
9795,1155,782
9800,1160,789
9805,1164,791
9810,1150,802
9815,1141,806
9820,1151,812
9825,1139,819
9830,1139,824
9835,1138,822
9840,1131,839
9845,1133,834
9850,1138,839
9855,1118,844
9860,1130,845
9865,1121,853
9870,1112,853
9875,1114,859
9880,1111,861
9885,1110,866
9890,1110,865
9895,1101,871
9900,1108,875
9905,1102,874
9910,1090,877
9915,1095,876
9920,1091,882
9925,1093,876
9930,1092,887
9935,1089,877
9940,1086,885
9945,1092,882
9950,1078,883
9955,1080,882
9960,1070,882
9965,1078,885
9970,1070,884
9975,1067,884
9980,1063,881
9985,1050,879
9990,1064,879
9995,1055,880
10000,1051,877
10005,1043,875
10010,1044,876
10015,1039,875
10020,1031,874
10025,1025,874
10030,1018,873
10035,1009,865
10040,1006,868
10045,987,869
10050,1000,865
10055,976,861
10060,978,858
10065,972,853
10070,964,860
10075,952,854
10080,954,856
10085,933,854
10090,936,854
10095,924,849
10100,912,848
10105,906,846
10110,890,846
10115,886,838
10120,884,846
10125,871,832
10130,865,844
10135,857,840
10140,845,841
10145,835,843
10150,831,835
10155,811,837
10160,808,835
10165,800,836
10170,802,842
10175,790,836
10180,771,833
10185,774,837
10190,772,831
10195,767,826
10200,767,826
10205,761,834
10210,749,823
10215,749,819
10220,754,817
10225,745,823
10230,742,819
10235,743,814
10240,739,811
10245,747,812
10250,751,809
10255,755,807
10260,762,803
10265,755,802
10270,765,801
10275,769,795
10280,775,791
10285,774,789
10290,787,785
10295,795,777
10300,801,777
10305,814,770
10310,818,773
10315,831,759
10320,845,765
10325,848,759
10330,860,755
10335,879,747
10340,886,747
10345,893,736
10350,912,736
10355,915,730
10360,931,736
10365,942,725
10370,956,721
10375,973,722
10380,985,713
10385,991,717
10390,999,705
10395,1016,705
10400,1024,709
10405,1041,703
10410,1051,698
10415,1059,697
10420,1062,695
10425,1085,692
10430,1089,692
10435,1105,691
10440,1108,687
10445,1113,690
10450,1128,685
10455,1129,692
10460,1136,686
10465,1153,691
10470,1151,687
10475,1153,688
10480,1163,691
10485,1171,690
10490,1173,699
10495,1183,702
10500,1184,697
10505,1179,705
10510,1178,702
10515,1189,709
10520,1196,711
10525,1181,717
10530,1188,717
10535,1185,725
10540,1192,727
10545,1182,731
10550,1189,734
10555,1187,742
10560,1188,745
10565,1182,752
10570,1173,758
10575,1178,763
10580,1173,768
10585,1169,772
10590,1172,779
10595,1164,784
10600,1164,786
10605,1158,793
10610,1153,799
10615,1156,806
10620,1145,809
10625,1150,812
10630,1140,826
10635,1134,827
10640,1132,826
10645,1129,833
10650,1124,844
10655,1116,844
10660,1115,847
10665,1119,856
10670,1125,851
10675,1111,856
10680,1112,860
10685,1115,865
10690,1112,867
10695,1106,873
10700,1097,875
10705,1097,871
10710,1096,874
10715,1103,879
10720,1092,875
10725,1089,881
10730,1092,878
10735,1097,879
10740,1089,876
10745,1085,881
10750,1078,885
10755,1073,885
10760,1080,884
10765,1071,885
10770,1076,886
10775,1073,880
10780,1066,882
10785,1065,883
10790,1054,880
10795,1056,879
10800,1054,879
10805,1043,877
10810,1049,874
10815,1047,875
10820,1029,876
10825,1025,872
10830,1023,876
10835,1019,876
10840,1004,872
10845,999,864
10850,998,862
10855,985,861
10860,979,854
10865,978,855
10870,968,858
10875,954,858
10880,954,855
10885,951,853
10890,936,850
10895,916,851
10900,913,842
10905,907,851
10910,902,842
10915,884,845
10920,878,843
10925,867,848
10930,857,846
10935,851,849
10940,839,839
10945,826,837
10950,830,836
10955,817,840
10960,815,838
10965,797,838
10970,791,834
10975,779,842
10980,780,830
10985,779,836
10990,769,830
10995,768,826
11000,774,827
11005,757,830
11010,758,826
11015,748,824
11020,753,822
11025,747,817
11030,747,819
11035,743,815
11040,748,818
11045,756,811
11050,761,811
11055,751,807
11060,753,798
11065,767,806
11070,757,804
11075,761,796
11080,775,788
11085,780,791
11090,800,783
11095,786,779
11100,809,783
11105,814,770
11110,816,772
11115,832,764
11120,838,763
11125,854,756
11130,872,754
11135,865,750
11140,885,749
11145,904,741
11150,904,741
11155,911,734
11160,934,735
11165,932,728
11170,956,723
11175,973,718
11180,981,714
11185,990,715
11190,1002,708
11195,1014,702
11200,1028,705
11205,1043,704
11210,1053,698
11215,1059,699
11220,1066,698
11225,1073,696
11230,1094,690
11235,1099,690
11240,1105,689
11245,1118,692
11250,1120,692
11255,1128,689
11260,1141,692
11265,1138,684
11270,1145,689
11275,1161,685
11280,1171,694
11285,1164,700
11290,1166,697
11295,1179,695
11300,1182,695
11305,1176,698
11310,1186,704
11315,1184,712
11320,1187,709
11325,1183,717
11330,1185,724
11335,1196,723
11340,1191,728
11345,1181,733
11350,1188,736
11355,1189,740
11360,1182,745
11365,1177,754
11370,1173,756
11375,1174,764
11380,1176,764
11385,1176,774
11390,1169,779
11395,1172,781
11400,1159,792
11405,1156,796
11410,1145,801
11415,1155,805
11420,1152,808
11425,1140,817
11430,1140,821
11435,1139,826
11440,1136,825
11445,1133,837
11450,1128,832
11455,1116,843
11460,1125,843
11465,1116,850
11470,1113,857
11475,1116,858
11480,1113,867
11485,1109,862
11490,1115,868
11495,1107,868
11500,1105,871
11505,1107,876
11510,1095,873
11515,1100,879
11520,1094,878
11525,1097,880
11530,1091,880
11535,1091,883
11540,1085,878
11545,1088,883
11550,1082,890
11555,1079,881
11560,1077,883
11565,1073,880
11570,1064,875
11575,1064,885
11580,1070,886
11585,1057,884
11590,1062,877
11595,1044,886
11600,1048,880
11605,1052,875
11610,1038,879
11615,1037,879
11620,1039,877
11625,1013,869
11630,1019,870
11635,1013,865
11640,1009,867
11645,1002,868
11650,989,862
11655,986,868
11660,980,858
11665,969,860
11670,968,857
11675,948,851
11680,958,854
11685,945,855
11690,921,854
11695,927,852
11700,922,851
11705,903,848
11710,888,847
11715,892,848
11720,880,836
11725,869,848
11730,868,847
11735,846,839
11740,848,846
11745,841,839
11750,828,836
11755,819,840
11760,808,842
11765,806,838
11770,803,836
11775,786,830
11780,785,839
11785,782,840
11790,777,830
11795,762,832
11800,763,833
11805,771,828
11810,755,821
11815,754,828
11820,753,820
11825,743,819
11830,740,816
11835,756,821
11840,756,815
11845,745,813
11850,749,807
11855,749,805
11860,754,807
11865,746,802
11870,763,801
11875,776,797
11880,779,792
11885,783,789
11890,787,784
11895,796,783
11900,801,773
11905,810,774
11910,814,771
11915,828,763
11920,840,761
11925,845,766
11930,854,756
11935,866,749
11940,879,746
11945,893,749
11950,902,740
11955,916,738
11960,926,727
11965,947,726
11970,948,726
11975,960,717
11980,981,718
11985,987,711
11990,997,709
11995,1019,712
12000,1029,708
12005,1027,704
12010,1043,694
12015,1051,697
12020,1069,694
12025,1070,695
12030,1087,694
12035,1102,685
12040,1101,685
12045,1116,687
12050,1117,686
12055,1131,691
12060,1137,689
12065,1143,688
12070,1152,687
12075,1151,689
12080,1174,695
12085,1174,685
12090,1165,693
12095,1172,694
12100,1182,702
12105,1185,695
12110,1191,705
12115,1189,710
12120,1192,708
12125,1195,711
12130,1197,722
12135,1190,719
12140,1188,724
12145,1184,734
12150,1181,733
12155,1180,740
12160,1187,749
12165,1183,754
12170,1180,756
12175,1171,763
12180,1171,765
12185,1171,770
12190,1182,781
12195,1170,777
12200,1155,788
12205,1155,792
12210,1155,798
12215,1154,803
12220,1154,809
12225,1154,808
12230,1138,819
12235,1139,824
12240,1145,827
12245,1128,833
12250,1128,836
12255,1128,843
12260,1116,844
12265,1121,849
12270,1119,851
12275,1121,855
12280,1115,860
12285,1117,867
12290,1115,870
12295,1114,871
12300,1103,865
12305,1103,869
12310,1105,874
12315,1093,876
12320,1094,880
12325,1099,882
12330,1083,890
12335,1082,885
12340,1084,882
12345,1077,884
12350,1084,882
12355,1076,881
12360,1084,883
12365,1067,887
12370,1067,883
12375,1063,879
12380,1069,881
12385,1067,882
12390,1066,880
12395,1058,882
12400,1049,879
12405,1037,877
12410,1039,873
12415,1034,871
12420,1030,872
12425,1022,876
12430,1021,861
12435,1016,869
12440,1007,867
12445,1008,866
12450,995,866
12455,987,864
12460,968,861
12465,976,861
12470,959,858
12475,958,860
12480,941,859
12485,944,847
12490,925,853
12495,928,851
12500,914,850
12505,915,853
12510,894,843
12515,894,849
12520,879,849
12525,870,842
12530,862,845
12535,858,849
12540,835,841
12545,845,842
12550,831,836
12555,818,834
12560,814,837
12565,806,839
12570,804,836
12575,793,833
12580,786,831
12585,776,838
12590,772,832
12595,770,833
12600,759,827
12605,755,831
12610,756,827
12615,751,824
12620,754,819
12625,753,816
12630,738,822
12635,743,815
12640,740,816
12645,757,811
12650,753,809
12655,758,807
12660,748,804
12665,762,808
12670,768,797
12675,765,800
12680,763,793
12685,777,791
12690,793,785
12695,803,785
12700,799,783
12705,807,774
12710,823,771
12715,827,766
12720,839,761
12725,847,764
12730,854,756
12735,859,746
12740,878,750
12745,901,743
12750,907,736
12755,912,734
12760,922,729
12765,941,730
12770,952,720
12775,965,719
12780,978,721
12785,986,717
12790,995,712
12795,1010,705
12800,1025,709
12805,1035,701
12810,1039,698
12815,1057,700
12820,1063,694
12825,1084,690
12830,1084,689
12835,1092,692
12840,1110,690
12845,1114,683
12850,1118,686
12855,1143,693
12860,1138,685
12865,1138,687
12870,1151,690
12875,1159,692
12880,1161,687
12885,1158,689
12890,1173,686
12895,1182,699
12900,1182,698
12905,1183,697
12910,1186,700
12915,1197,707
12920,1175,710
12925,1183,713
12930,1180,716
12935,1183,723
12940,1187,727
12945,1177,733
12950,1187,733
12955,1183,738
12960,1181,743
12965,1187,749
12970,1177,756
12975,1174,758
12980,1176,768
12985,1173,770
12990,1168,775
12995,1161,780
13000,1159,786
13005,1158,788
13010,1164,797
13015,1143,807
13020,1149,808
13025,1144,814
13030,1141,818
13035,1138,821
13040,1135,828
13045,1123,834
13050,1127,836
13055,1124,842
13060,1118,844
13065,1123,847
13070,1125,851
13075,1110,851
13080,1111,863
13085,1116,858
13090,1106,867
13095,1109,868
13100,1105,875
13105,1108,874
13110,1099,873
13115,1095,879
13120,1093,875
13125,1094,881
13130,1086,876
13135,1090,877
13140,1085,880
13145,1087,882
13150,1084,883
13155,1074,881
13160,1076,882
13165,1076,887
13170,1071,880
13175,1071,885
13180,1074,880
13185,1063,881
13190,1064,881
13195,1060,876
13200,1042,879
13205,1047,878
13210,1042,871
13215,1053,870
13220,1025,869
13225,1028,872
13230,1014,862
13235,1012,862
13240,1010,867
13245,1008,861
13250,995,860
13255,996,864
13260,992,861
13265,974,859
13270,967,858
13275,964,854
13280,954,857
13285,937,847
13290,930,851
13295,929,854
13300,915,852
13305,902,854
13310,899,849
13315,885,850
13320,884,848
13325,879,846
13330,866,843
13335,850,839
13340,850,844
13345,839,839
13350,826,843
13355,829,838
13360,819,837
13365,798,838
13370,798,840
13375,796,836
13380,782,836
13385,766,828
13390,777,833
13395,773,828
13400,764,826
13405,764,828
13410,753,828
13415,751,819
13420,754,825
13425,742,823
13430,755,822
13435,744,818
13440,755,814
13445,747,814
13450,750,806
13455,747,812
13460,758,808
13465,762,801
13470,766,801
13475,770,794
13480,774,795
13485,774,788
13490,795,785
13495,788,781
13500,805,783
13505,807,771
13510,811,771
13515,837,769
13520,825,768
13525,841,762
13530,862,753
13535,864,752
13540,873,750
13545,896,744
13550,904,735
13555,919,735
13560,924,730
13565,935,725
13570,946,721
13575,964,721
13580,972,715
13585,985,712
13590,1001,706
13595,1004,708
13600,1019,705
13605,1032,702
13610,1048,692
13615,1056,700
13620,1066,695
13625,1077,691
13630,1086,693
13635,1089,689
13640,1102,688
13645,1113,684
13650,1129,686
13655,1128,690
13660,1132,687
13665,1140,686
13670,1147,689
13675,1158,691
13680,1173,692
13685,1157,691
13690,1165,695
13695,1178,697
13700,1187,696
13705,1185,700
13710,1185,696
13715,1184,702
13720,1189,710
13725,1189,710
13730,1189,719
13735,1186,723
13740,1184,726
13745,1187,733
13750,1190,728
13755,1191,736
13760,1183,754
13765,1180,752
13770,1175,750
13775,1179,761
13780,1168,768
13785,1173,770
13790,1166,774
13795,1169,779
13800,1162,788
13805,1157,796
13810,1145,798
13815,1158,802
13820,1154,810
13825,1146,814
13830,1142,817
13835,1148,822
13840,1132,827
13845,1126,834
13850,1137,841
13855,1126,842
13860,1122,849
13865,1115,844
13870,1114,855
13875,1115,860
13880,1104,860
13885,1106,856
13890,1106,865
13895,1102,869
13900,1105,870
13905,1095,873
13910,1092,874
13915,1091,873
13920,1089,878
13925,1095,874
13930,1088,887
13935,1081,884
13940,1086,887
13945,1081,888
13950,1084,879
13955,1072,883
13960,1071,881
13965,1067,884
13970,1078,880
13975,1069,883
13980,1062,881
13985,1068,883
13990,1063,880
13995,1050,878
14000,1053,877
14005,1047,878
14010,1047,874
14015,1041,868
14020,1031,872
14025,1031,871
14030,1026,867
14035,1017,871
14040,1011,869
14045,998,871
14050,1002,861
14055,997,869
14060,991,862
14065,977,869
14070,972,854
14075,958,860
14080,952,859
14085,940,854
14090,936,854
14095,928,856
14100,913,846
14105,915,843
14110,906,854
14115,896,847
14120,878,844
14125,867,846
14130,862,844
14135,850,841
14140,850,841
14145,837,846
14150,838,835
14155,827,837
14160,811,835
14165,810,840
14170,798,834
14175,796,835
14180,794,835
14185,769,833
14190,765,834
14195,773,832
14200,756,831
14205,755,825
14210,755,828
14215,751,824
14220,753,825
14225,742,819
14230,746,819
14235,754,815
14240,744,821
14245,742,818
14250,742,812
14255,749,808
14260,758,806
14265,760,801
14270,759,800
14275,766,792
14280,776,796
14285,782,791
14290,777,790
14295,786,781
14300,797,776
14305,806,778
14310,819,773
14315,823,771
14320,831,763
14325,849,760
14330,852,753
14335,859,750
14340,881,746
14345,886,742
14350,897,738
14355,911,738
14360,929,735
14365,935,730
14370,946,725
14375,952,722
14380,980,718
14385,998,716
14390,995,710
14395,1007,713
14400,1014,708
14405,1032,702
14410,1036,698
14415,1052,698
14420,1069,699
14425,1073,695
14430,1092,691
14435,1097,684
14440,1109,688
14445,1108,691
14450,1127,687
14455,1141,685
14460,1132,688
14465,1141,691
14470,1154,689
14475,1154,687
14480,1165,684
14485,1170,692
14490,1175,692
14495,1180,693
14500,1176,693
14505,1186,698
14510,1181,705
14515,1190,704
14520,1200,714
14525,1184,714
14530,1186,721
14535,1183,724
14540,1188,723
14545,1184,729
14550,1190,734
14555,1187,739
14560,1185,747
14565,1187,747
14570,1172,751
14575,1180,758
14580,1177,766
14585,1172,764
14590,1168,771
14595,1164,779
14600,1171,785
14605,1161,790
14610,1155,799
14615,1159,800
14620,1147,806
14625,1148,813
14630,1140,815
14635,1144,825
14640,1137,827
14645,1135,833
14650,1136,832
14655,1129,839
14660,1123,844
14665,1121,842
14670,1122,858
14675,1119,855
14680,1114,858
14685,1113,863
14690,1109,863
14695,1105,872
14700,1102,870
14705,1098,870
14710,1093,871
14715,1096,883
14720,1092,872
14725,1099,878
14730,1084,884
14735,1083,883
14740,1085,886
14745,1081,888
14750,1093,883
14755,1068,882
14760,1071,884
14765,1079,885
14770,1075,875
14775,1063,885
14780,1060,879
14785,1056,880
14790,1054,876
14795,1062,879
14800,1053,880
14805,1050,874
14810,1043,875
14815,1043,879
14820,1043,870
14825,1036,877
14830,1022,873
14835,1016,873
14840,1019,863
14845,1003,861
14850,995,866
14855,988,862
14860,986,861
14865,972,861
14870,965,859
14875,953,853
14880,949,856
14885,938,857
14890,938,853
14895,932,854
14900,916,853
14905,906,852
14910,897,845
14915,890,846
14920,881,848
14925,871,845
14930,869,847
14935,851,841
14940,850,842
14945,835,839
14950,835,841
14955,822,833
14960,811,833
14965,810,837
14970,809,835
14975,796,837
14980,785,830
14985,786,836
14990,775,836
14995,771,835
15000,762,828
15005,769,827
15010,756,831
15015,754,828
15020,748,828
15025,742,824
15030,743,819
15035,744,814
15040,746,813
15045,739,811
15050,760,807
15055,752,805
15060,760,801
15065,756,802
15070,756,806
15075,770,790
15080,772,796
15085,779,788
15090,777,790
15095,795,789
15100,792,781
15105,800,773
15110,807,766
15115,827,774
15120,836,763
15125,836,761
15130,858,754
15135,864,751
15140,878,739
15145,889,751
15150,907,740
15155,910,732
15160,934,735
15165,932,731
15170,939,726
15175,965,721
15180,965,717
15185,983,710
15190,997,709
15195,1011,700
15200,1017,703
15205,1028,702
15210,1047,695
15215,1049,698
15220,1060,698
15225,1062,689
15230,1076,691
15235,1090,689
15240,1103,688
15245,1110,690
15250,1115,681
15255,1136,687
15260,1133,690
15265,1141,690
15270,1149,687
15275,1149,685
15280,1170,692
15285,1156,694
15290,1173,696
15295,1171,690
15300,1168,702
15305,1179,699
15310,1177,702
15315,1196,704
15320,1189,708
15325,1187,712
15330,1193,723
15335,1181,716
15340,1186,724
15345,1183,730
15350,1180,728
15355,1179,740
15360,1177,745
15365,1181,746
15370,1188,752
15375,1179,761
15380,1183,761
15385,1165,767
15390,1174,769
15395,1173,780
15400,1165,787
15405,1157,788
15410,1159,789
15415,1148,800
15420,1152,811
15425,1140,808
15430,1141,817
15435,1143,826
15440,1130,827
15445,1135,824
15450,1126,834
15455,1129,840
15460,1129,842
15465,1124,850
15470,1117,849
15475,1113,861
15480,1117,861
15485,1116,862
15490,1104,862
15495,1101,866
15500,1102,868
15505,1099,870
15510,1100,877
15515,1094,875
15520,1093,879
15525,1090,878
15530,1103,880
15535,1091,877
15540,1096,882
15545,1077,883
15550,1079,886
15555,1070,882
15560,1076,886
15565,1078,883
15570,1073,885
15575,1068,882
15580,1068,882
15585,1061,882
15590,1056,880
15595,1060,875
15600,1052,870
15605,1052,878
15610,1044,875
15615,1037,872
15620,1035,871
15625,1023,871
15630,1022,874
15635,1015,866
15640,1012,868
15645,1007,862
15650,1005,857
15655,988,864
15660,983,860
15665,981,860
15670,962,858
15675,964,855
15680,969,859
15685,948,858
15690,932,854
15695,930,857
15700,915,856
15705,907,850
15710,896,848
15715,895,850
15720,885,846
15725,870,852
15730,865,846
15735,858,848
15740,862,846
15745,848,842
15750,832,844
15755,829,837
15760,817,836
15765,811,839
15770,790,839
15775,801,839
15780,781,832
15785,777,827
15790,783,830
15795,772,827
15800,762,833
15805,759,830
15810,758,829
15815,746,826
15820,745,824
15825,744,819
15830,737,824
15835,745,821
15840,741,812
15845,742,816
15850,746,810
15855,753,811
15860,762,805
15865,764,803
15870,764,799
15875,760,794
15880,768,794
15885,773,790
15890,787,792
15895,778,787
15900,796,780
15905,798,775
15910,815,774
15915,822,771
15920,824,767
15925,837,760
15930,853,757
15935,860,753
15940,870,746
15945,878,745
15950,901,739
15955,896,741
15960,925,736
15965,922,737
15970,949,725
15975,952,720
15980,962,717
15985,973,719
15990,987,709
15995,1012,709
16000,1010,708
16004,1021,704
16010,1042,703
16015,1054,695
16020,1062,697
16024,1073,694
16030,1086,688
16035,1098,691
16040,1096,688
16045,1100,685
16050,1115,692
16055,1126,688
16059,1124,688
16065,1145,687
16070,1149,687
16075,1152,692
16079,1160,690
16085,1157,691
16090,1168,696
16094,1170,694
16100,1178,698
16105,1173,701
16110,1178,700
16114,1186,710
16120,1188,706
16125,1186,713
16129,1189,716
16135,1187,720
16140,1190,723
16145,1194,728
16149,1189,732
16155,1189,740
16160,1186,742
16165,1176,749
16170,1189,748
16175,1172,762
16180,1169,762
16184,1170,774
16190,1174,776
16195,1170,778
16200,1157,786
16204,1159,786
16210,1157,791
16215,1158,804
16219,1148,802
16225,1146,818
16230,1140,818
16235,1140,822
16239,1138,824
16245,1130,831
16250,1133,840
16254,1123,836
16260,1128,846
16265,1115,851
16270,1116,854
16274,1113,854
16280,1109,858
16285,1105,863
16290,1104,870
16295,1112,864
16300,1103,874
16305,1099,873
16309,1100,875
16315,1093,879
16320,1087,876
16325,1082,884
16329,1103,879
16335,1092,876
16340,1089,888
16344,1073,882
16350,1088,884
16355,1087,884
16360,1088,884
16364,1076,882
16370,1071,883
16375,1066,888
16379,1071,878
16385,1065,879
16390,1054,879
16395,1052,878
16400,1055,876
16405,1051,879
16410,1038,882
16415,1040,874
16420,1037,873
16425,1034,875
16430,1030,873
16435,1021,865
16440,1021,866
16445,1008,866
16450,1001,864
16455,995,862
16460,985,862
16465,977,855
16470,977,862
16475,960,856
16480,959,861
16485,950,853
16490,932,854
16495,923,854
16500,916,846
16505,907,854
16510,900,853
16515,895,847
16520,888,847
16525,880,848
16530,874,845
16535,867,841
16540,854,845
16545,838,840
16550,833,838
16555,825,841
16560,818,840
16565,815,838
16570,797,841
16575,789,836
16580,785,834
16585,788,836
16590,771,833
16595,775,827
16600,756,826
16605,763,829
16610,758,830
16615,750,827
16620,754,827
16625,750,821
16630,756,822
16635,748,825
16640,743,816
16645,752,809
16650,747,814
16655,747,812
16660,746,808
16665,755,801
16670,766,801
16675,766,794
16680,762,790
16685,778,793
16690,786,784
16695,791,782
16700,812,787
16705,807,782
16710,821,778
16715,814,769
16720,821,760
16725,836,758
16730,849,757
16735,865,756
16740,877,746
16745,883,750
16750,896,744
16755,915,735
16760,920,736
16765,931,731
16770,947,724
16775,958,719
16780,974,718
16785,976,711
16790,999,710
16795,1010,710
16800,1026,709
16805,1019,705
16810,1028,701
16815,1042,699
16820,1066,699
16825,1071,693
16830,1079,691
16835,1093,697
16840,1103,693
16845,1111,686
16850,1109,685
16855,1131,687
16860,1139,686
16865,1135,690
16870,1147,685
16875,1150,682
16880,1155,690
16885,1160,688
16890,1178,693
16895,1171,698
16900,1179,699
16905,1178,696
16910,1182,704
16915,1182,704
16920,1189,709
16925,1180,711
16930,1186,717
16935,1186,719
16940,1182,720
16945,1182,729
16950,1189,730
16955,1179,733
16960,1185,740
16965,1186,750
16970,1180,757
16975,1174,758
16980,1178,762
16985,1168,758
16990,1166,775
16995,1173,776
17000,1168,791
17005,1159,793
17010,1163,794
17015,1157,798
17020,1154,805
17025,1147,811
17030,1147,816
17035,1150,820
17040,1136,828
17045,1133,828
17050,1132,834
17055,1135,842
17060,1128,846
17065,1119,845
17070,1126,846
17075,1108,852
17080,1120,860
17085,1112,859
17090,1108,862
17095,1099,868
17100,1105,875
17105,1108,876
17110,1094,872
17115,1099,878
17120,1098,880
17125,1094,882
17130,1087,882
17135,1089,884
17140,1093,883
17145,1081,884
17150,1080,885
17155,1072,883
17160,1072,883
17165,1071,885
17170,1067,887
17175,1070,880
17180,1071,886
17185,1062,878
17190,1063,881
17195,1049,877
17200,1050,878
17205,1050,874
17210,1052,878
17215,1045,884
17220,1033,880
17225,1031,875
17230,1022,878
17235,1022,866
17240,1013,864
17245,1014,868
17250,999,862
17255,984,860
17260,988,861
17265,982,863
17270,977,859
17275,970,861
17280,954,853
17285,947,861
17290,940,855
17295,936,855
17300,923,848
17305,911,852
17310,916,850
17315,899,847
17320,888,844
17325,883,848
17330,879,842
17335,850,845
17340,856,843
17345,833,841
17350,825,844
17355,826,845
17360,823,837
17365,807,831
17370,800,837
17375,790,832
17380,777,837
17385,782,834
17390,772,834
17395,772,831
17400,763,831
17405,751,824
17410,758,823
17415,748,828
17420,751,826
17425,751,822
17430,757,818
17435,750,818
17440,744,810
17445,752,814
17450,745,808
17455,751,808
17460,763,806
17465,758,802
17470,761,800
17475,756,796
17480,764,792
17485,778,787
17490,779,790
17495,790,785
17500,798,781
17505,814,777
17510,817,777
17515,822,769
17520,831,762
17525,841,761
17530,850,757
17535,865,754
17540,866,751
17545,882,750
17550,896,741
17555,903,741
17560,920,732
17565,926,731
17570,942,730
17575,948,720
17580,965,723
17585,980,719
17590,997,716
17595,1012,709
17600,1016,710
17605,1025,707
17610,1041,698
17615,1047,702
17620,1063,696
17625,1074,696
17630,1080,696
17635,1088,687
17640,1090,690
17645,1104,688
17650,1119,690
17655,1123,683
17660,1125,686
17665,1143,690
17670,1138,690
17675,1152,688
17680,1152,686
17685,1165,684
17690,1165,692
17695,1168,693
17700,1183,695
17705,1171,701
17710,1181,699
17715,1194,709
17720,1184,710
17725,1184,712
17730,1185,715
17735,1171,717
17740,1199,723
17745,1188,729
17750,1182,729
17755,1176,735
17760,1174,743
17765,1184,746
17770,1178,752
17775,1172,757
17780,1172,759
17785,1180,767
17790,1173,769
17795,1171,785
17800,1168,785
17805,1160,789
17810,1150,794
17815,1152,798
17820,1147,805
17825,1150,809
17830,1142,812
17835,1146,825
17840,1138,824
17845,1135,825
17850,1141,831
17855,1126,839
17860,1119,847
17865,1132,849
17870,1117,851
17875,1114,850
17880,1113,858
17885,1114,856
17890,1107,861
17895,1102,863
17900,1111,871
17905,1097,875
17910,1109,874
17915,1098,879
17920,1100,876
17925,1091,876
17930,1095,883
17935,1096,883
17940,1087,882
17945,1082,881
17950,1078,884
17955,1078,883
17960,1074,882
17965,1077,881
17970,1080,889
17975,1059,881
17980,1062,882
17985,1063,883
17990,1060,883
17995,1052,876
18000,1056,879
18005,1045,874
18010,1038,876
18015,1038,874
18020,1038,874
18025,1028,880
18030,1034,866
18035,1022,873
18040,1015,869
18045,1008,874
18050,1001,865
18055,994,864
18060,992,862
18065,980,861
18070,965,857
18075,957,855
18080,956,856
18085,945,854
18090,938,850
18095,937,851
18100,925,848
18105,911,848
18110,902,844
18115,895,846
18120,886,847
18125,876,840
18130,872,841
18135,865,840
18140,849,844
18145,835,839
18150,836,842
18155,824,836
18160,822,840
18165,812,839
18170,797,839
18175,796,838
18180,788,836
18185,780,833
18190,785,835
18195,764,832
18200,765,832
18205,760,825
18210,758,826
18215,758,822
18220,761,824
18225,758,825
18230,749,823
18235,743,820
18240,744,814
18245,746,806
18250,746,811
18255,762,810
18260,755,811
18265,760,804
18270,757,803
18275,763,802
18280,763,788
18285,779,792
18290,788,788
18295,799,784
18300,794,786
18305,797,777
18310,811,770
18315,820,776
18320,821,765
18325,842,765
18330,852,758
18335,862,754
18340,876,748
18345,887,744
18350,897,743
18355,897,735
18360,917,730
18365,923,737
18370,931,734
18375,960,725
18380,957,720
18385,974,712
18390,987,714
18395,1003,708
18400,1005,705
18405,1025,706
18410,1034,698
18415,1055,700
18420,1045,704
18425,1075,686
18430,1077,692
18435,1090,696
18440,1101,696
18445,1112,685
18450,1122,687
18455,1128,685
18460,1133,683
18465,1138,687
18470,1146,687
18475,1160,688
18480,1154,690
18485,1167,691
18490,1167,694
18495,1168,700
18500,1175,692
18505,1178,692
18510,1181,697
18515,1179,703
18520,1189,710
18525,1182,711
18530,1193,719
18535,1184,718
18540,1185,725
18545,1179,726
18550,1188,730
18555,1194,734
18560,1181,746
18565,1182,748
18570,1184,748
18575,1186,756
18580,1169,760
18585,1172,772
18590,1167,773
18595,1165,775
18600,1156,785
18605,1167,790
18610,1156,800
18615,1156,798
18620,1158,804
18625,1158,807
18630,1153,820
18635,1141,820
18640,1136,821
18645,1137,828
18650,1136,835
18655,1133,837
18660,1124,845
18665,1111,848
18670,1114,849
18675,1104,856
18680,1118,857
18685,1112,857
18690,1118,862
18695,1115,868
18700,1101,870
18705,1108,870
18710,1091,874
18715,1095,873
18720,1093,876
18725,1094,882
18730,1089,879
18735,1087,879
18740,1085,879
18745,1091,882
18750,1089,883
18755,1079,881
18760,1081,877
18765,1072,884
18770,1073,886
18775,1069,884
18780,1068,877
18785,1060,879
18790,1062,879
18795,1055,878
18800,1057,880
18805,1058,879
18810,1043,878
18815,1044,874
18820,1034,877
18825,1029,871
18830,1025,868
18835,1013,869
18840,1009,866
18845,1014,866
18850,1004,865
18855,990,859
18860,987,868
18865,973,859
18870,976,859
18875,968,855
18880,960,861
18885,947,855
18890,941,852
18895,936,850
18900,919,857
18905,916,856
18910,915,852
18915,897,849
18920,886,847
18925,871,849
18930,863,849
18935,853,844
18940,850,845
18945,837,843
18950,834,844
18955,821,841
18960,813,837
18965,809,834
18970,810,836
18975,792,834
18980,793,834
18985,787,836
18990,773,829
18995,773,829
19000,766,835
19005,756,822
19010,761,830
19015,757,828
19020,753,827
19025,755,820
19030,741,822
19035,737,823
19040,746,816
19045,744,818
19050,741,815
19055,745,810
19060,757,807
19065,755,804
19070,760,805
19075,774,792
19080,769,795
19085,778,792
19090,778,789
19095,793,788
19100,796,779
19105,797,779
19110,814,771
19115,829,773
19120,825,769
19125,839,765
19130,851,760
19135,865,756
19140,873,750
19145,874,751
19150,890,747
19155,906,741
19160,910,735
19165,914,732
19170,931,727
19175,946,722
19180,968,719
19185,972,716
19190,989,712
19195,1002,707
19200,1006,715
19205,1023,709
19210,1042,702
19215,1046,700
19220,1053,695
19225,1063,696
19230,1075,695
19235,1083,697
19240,1100,697
19245,1107,687
19250,1125,690
19255,1122,690
19260,1135,683
19265,1139,690
19270,1140,685
19275,1154,688
19280,1151,685
19285,1165,688
19290,1176,692
19295,1176,691
19300,1171,695
19305,1176,702
19310,1175,698
19315,1185,702
19320,1184,710
19325,1196,711
19330,1185,713
19335,1190,717
19340,1191,722
19345,1196,722
19350,1188,733
19355,1190,735
19360,1180,742
19365,1180,744
19370,1174,747
19375,1189,756
19380,1173,763
19385,1171,763
19390,1168,772
19395,1167,775
19400,1171,780
19405,1156,788
19410,1155,793
19415,1165,796
19420,1150,804
19425,1146,811
19430,1146,814
19435,1150,818
19440,1149,823
19445,1141,828
19450,1127,827
19455,1143,835
19460,1134,847
19465,1126,847
19470,1130,854
19475,1119,857
19480,1120,857
19485,1118,865
19490,1112,865
19495,1106,863
19500,1108,872
19505,1102,871
19510,1093,871
19515,1093,875
19520,1095,879
19525,1095,877
19530,1098,883
19535,1083,877
19540,1096,880
19545,1090,883
19550,1085,883
19555,1067,881
19560,1093,883
19565,1073,889
19570,1076,887
19575,1069,880
19580,1073,885
19585,1054,880
19590,1062,880
19595,1058,882
19600,1053,876
19605,1051,875
19610,1046,877
19615,1041,874
19620,1040,875
19625,1036,874
19630,1028,868
19635,1018,870
19640,1015,870
19645,1009,868
19650,994,863
19655,991,866
19660,992,860
19665,982,861
19670,973,858
19675,972,853
19680,960,851
19685,949,858
19690,937,857
19695,925,853
19700,927,852
19705,915,849
19710,909,847
19715,905,845
19720,891,851
19725,882,849
19730,865,846
19735,866,846
19740,848,844
19745,839,848
19750,840,842
19755,829,842
19760,815,846
19765,802,839
19770,808,835
19775,801,832
19780,795,837
19785,794,833
19790,784,833
19795,769,833
19800,771,825
19805,760,830
19810,764,828
19815,753,826
19820,750,823
19825,755,823
19830,754,823
19835,747,819
19840,751,816
19845,747,819
19850,740,815
19855,749,810
19860,757,807
19865,766,802
19870,759,797
19875,758,801
19880,771,796
19885,764,790
19890,794,791
19895,788,785
19900,793,778
19905,799,776
19910,805,773
19915,818,774
19920,830,766
19925,841,759
19930,854,756
19935,864,753
19940,874,754
19945,878,749
19950,893,744
19955,902,737
19960,918,738
19965,925,733
19970,934,729
19975,951,727
19980,968,716
19985,966,712
19990,988,716
19995,1001,709
20000,999,707
20005,1018,700
20010,1038,699
20015,1047,699
20020,1053,696
20025,1073,692
20030,1077,694
20035,1079,697
20040,1100,692
20045,1099,689
20050,1114,687
20055,1121,685
20060,1138,688
20065,1141,690
20070,1151,685
20075,1153,689
20080,1154,687
20085,1165,688
20090,1168,692
20095,1171,697
20100,1174,699
20105,1186,704
20110,1188,697
20115,1182,706
20120,1190,711
20125,1187,713
20130,1188,712
20135,1195,722
20140,1189,720
20145,1184,725
20150,1193,731
20155,1187,730
20160,1183,738
20165,1190,741
20170,1184,751
20175,1172,755
20180,1175,761
20185,1168,766
20190,1174,774
20195,1167,775
20200,1169,782
20205,1159,791
20210,1161,794
20215,1164,800
20220,1147,803
20225,1150,808
20230,1138,811
20235,1148,813
20240,1143,823
20245,1136,823
20250,1132,827
20255,1132,835
20260,1127,841
20265,1132,844
20270,1115,847
20275,1114,857
20280,1114,856
20285,1106,860
20290,1116,869
20295,1110,866
20300,1100,867
20305,1114,869
20310,1103,877
20315,1099,865
20320,1097,879
20325,1094,878
20330,1082,880
20335,1090,881
20340,1088,883
20345,1085,881
20350,1082,880
20355,1073,886
20360,1083,882
20365,1077,888
20370,1078,883
20375,1068,883
20380,1073,887
20385,1069,881
20390,1066,879
20395,1059,877
20400,1050,878
20405,1061,878
20410,1040,872
20415,1044,877
20420,1045,871
20425,1034,868
20430,1018,865
20435,1027,872
20440,1020,867
20445,1008,867
20450,997,868
20455,995,867
20460,991,864
20465,976,860
20470,976,860
20475,965,856
20480,960,864
20485,949,860
20490,934,849
20495,937,852
20500,926,855
20505,919,849
20510,907,852
20515,902,848
20520,884,851
20525,883,846
20530,883,845
20535,864,839
20540,858,842
20545,848,840
20550,842,846
20555,844,842
20560,828,840
20565,809,837
20570,801,843
20575,799,835
20580,808,830
20585,781,833
20590,779,835
20595,763,831
20600,777,827
20605,762,832
20610,765,825
20615,753,830
20620,758,827
20625,760,822
20630,757,818
20635,750,823
20640,749,814
20645,752,818
20650,744,812
20655,745,804
20660,753,809
20665,756,806
20670,769,808
20675,769,796
20680,772,793
20685,779,788
20690,774,793
20695,783,784
20700,809,784
20705,801,776
20710,796,776
20715,829,774
20720,823,766
20725,834,762
20730,854,762
20735,857,754
20740,866,752
20745,880,746
20750,884,743
20755,900,743
20760,908,746
20765,926,734
20770,946,725
20775,935,727
20780,960,723
20785,966,720
20790,983,715
20795,997,711
20800,1012,704
20805,1019,702
20810,1035,704
20815,1041,699
20820,1056,699
20825,1064,695
20830,1079,685
20835,1085,688
20840,1092,691
20845,1102,690
20850,1110,691
20855,1124,688
20860,1124,687
20865,1140,686
20870,1146,683
20875,1152,688
20880,1152,696
20885,1159,684
20890,1170,691
20895,1174,696
20900,1169,697
20905,1165,695
20910,1179,697
20915,1179,703
20920,1179,704
20925,1193,711
20930,1188,710
20935,1184,717
20940,1185,717
20945,1185,728
20950,1191,729
20955,1187,735
20960,1191,737
20965,1186,747
20970,1184,750
20975,1178,752
20980,1180,762
20985,1164,763
20990,1168,772
20995,1179,773
21000,1161,775
21005,1162,792
21010,1164,789
21015,1155,797
21020,1154,802
21025,1151,807
21030,1157,813
21035,1144,818
21040,1140,820
21045,1139,833
21050,1117,830
21055,1142,831
21060,1133,840
21065,1117,838
21070,1126,851
21075,1118,852
21080,1118,858
21085,1109,861
21090,1116,867
21095,1109,865
21100,1096,867
21105,1103,875
21110,1110,873
21115,1100,872
21120,1095,879
21125,1107,886
21130,1097,881
21135,1097,880
21140,1094,882
21145,1092,878
21150,1085,881
21155,1082,881
21160,1082,881
21165,1076,884
21170,1078,883
21175,1062,881
21180,1072,882
21185,1060,884
21190,1061,880
21195,1059,880
21200,1047,879
21205,1050,878
21210,1047,881
21215,1044,874
21220,1035,873
21225,1023,873
21230,1027,871
21235,1028,868
21240,1022,866
21245,1006,868
21250,989,865
21255,990,861
21260,985,860
21265,984,857
21270,983,861
21275,974,854
21280,967,858
21285,949,858
21290,947,856
21295,930,851
21300,925,853
21305,918,848
21310,904,844
21315,901,849
21320,890,846
21325,881,846
21330,876,847
21335,857,849
21340,855,849
21345,848,847
21350,843,837
21355,826,835
21360,824,839
21365,815,836
21370,803,840
21375,799,834
21380,798,833
21385,786,838
21390,781,832
21395,784,832
21400,775,832
21405,768,826
21410,759,836
21415,759,824
21420,758,829
21425,752,822
21430,747,826
21435,753,821
21440,743,817
21445,750,817
21450,750,810
21455,743,807
21460,743,812
21465,757,806
21470,752,798
21475,759,801
21480,757,795
21485,780,793
21490,773,789
21495,787,790
21500,797,783
21505,804,779
21510,811,775
21515,806,773
21520,818,766
21525,837,766
21530,838,756
21535,854,751
21540,864,752
21545,874,746
21550,886,742
21555,899,738
21560,913,735
21565,921,738
21570,937,729
21575,944,723
21580,954,726
21585,964,719
21590,980,716
21595,992,711
21600,1004,710
21605,1012,701
21610,1025,710
21615,1037,701
21620,1035,698
21625,1057,691
21630,1072,689
21635,1079,689
21640,1095,697
21645,1095,684
21650,1115,687
21655,1115,683
21660,1128,688
21665,1137,686
21670,1145,693
21675,1148,690
21680,1157,683
21685,1162,690
21690,1169,691
21695,1160,689
21700,1168,692
21705,1179,691
21710,1184,703
21715,1183,704
21720,1183,703
21725,1191,708
21730,1191,713
21735,1185,717
21740,1195,721
21745,1187,720
21750,1194,726
21755,1189,739
21760,1182,738
21765,1185,737
21770,1177,744
21775,1180,750
21780,1170,756
21785,1180,762
21790,1177,768
21795,1161,778
21800,1172,780
21805,1154,785
21810,1159,794
21815,1160,798
21820,1156,808
21825,1150,806
21830,1146,808
21835,1142,819
21840,1143,821
21845,1134,829
21850,1130,829
21855,1131,834
21860,1127,841
21865,1129,843
21870,1119,851
21875,1125,853
21880,1104,853
21885,1112,861
21890,1107,862
21895,1101,862
21900,1104,866
21905,1098,865
21910,1100,867
21915,1097,875
21920,1096,878
21925,1091,880
21930,1093,877
21935,1079,883
21940,1086,876
21945,1092,884
21950,1084,883
21955,1084,886
21960,1075,886
21965,1078,882
21970,1074,885
21975,1071,878
21980,1073,883
21985,1069,884
21990,1064,876
21995,1058,877
22000,1056,878
22005,1045,879
22010,1042,877
22015,1046,878
22020,1038,878
22025,1039,870
22030,1034,875
22035,1014,871
22040,1012,868
22045,1012,861
22050,1003,867
22055,997,859
22060,997,865
22065,993,860
22070,980,864
22075,965,861
22080,963,855
22085,951,852
22090,951,857
22095,936,851
22100,927,856
22105,919,851
22110,901,846
22115,900,856
22120,897,847
22125,887,846
22130,876,847
22135,868,844
22140,856,840
22145,849,844
22150,839,841
22155,824,841
22160,824,837
22165,817,841
22170,806,833
22175,803,835
22180,787,837
22185,787,838
22190,781,832
22195,777,832
22200,772,830
22205,759,828
22210,773,828
22215,752,832
22220,759,820
22225,741,824
22230,755,822
22235,748,819
22240,755,812
22245,748,812
22250,751,809
22255,750,809
22260,753,805
22265,763,808
22270,756,803
22275,767,801
22280,772,795
22285,768,788
22290,776,789
22295,791,792
22300,779,784
22305,801,774
22310,814,774
22315,822,770
22320,821,767
22325,827,763
22330,837,762
22335,849,752
22340,867,750
22345,872,748
22350,890,742
22355,903,741
22360,910,737
22365,918,736
22370,937,730
22375,941,724
22380,949,725
22385,970,720
22390,975,716
22395,997,717
22400,1008,709
22405,1023,704
22410,1030,697
22415,1040,699
22420,1062,695
22425,1062,690
22430,1071,695
22435,1083,695
22440,1088,691
22445,1112,689
22450,1101,686
22455,1120,689
22460,1133,680
22465,1132,690
22470,1144,694
22475,1149,690
22480,1151,684
22485,1167,685
22490,1170,690
22495,1169,689
22500,1172,694
22505,1187,696
22510,1178,701
22515,1181,701
22520,1172,704
22525,1193,710
22530,1180,708
22535,1188,719
22540,1193,719
22545,1183,724
22550,1193,729
22555,1189,730
22560,1187,737
22565,1183,750
22570,1187,749
22575,1174,755
22580,1177,755
22585,1179,763
22590,1177,764
22595,1173,776
22600,1163,780
22605,1162,785
22610,1160,789
22615,1156,793
22620,1146,803
22625,1147,802
22630,1149,814
22635,1137,816
22640,1133,822
22645,1137,824
22650,1135,833
22655,1139,839
22660,1126,840
22665,1128,840
22670,1121,849
22675,1117,848
22680,1121,858
22685,1115,860
22690,1113,863
22695,1110,859
22700,1105,867
22705,1100,874
22710,1101,878
22715,1103,875
22720,1096,874
22725,1094,872
22730,1096,881
22735,1096,883
22740,1089,877
22745,1083,885
22750,1082,885
22755,1083,887
22760,1078,882
22765,1078,879
22770,1073,881
22775,1069,882
22780,1071,880
22785,1064,886
22790,1058,883
22795,1063,885
22800,1054,877
22805,1052,880
22810,1042,877
22815,1047,878
22820,1036,872
22825,1029,872
22830,1030,873
22835,1013,875
22840,1020,866
22845,1018,866
22850,1005,864
22855,1002,862
22860,990,864
22865,979,860
22870,980,860
22875,966,862
22880,966,856
22885,954,859
22890,943,855
22895,945,858
22900,923,856
22905,920,853
22910,916,847
22915,903,847
22920,879,854
22925,877,845
22930,872,849
22935,874,850
22940,851,837
22945,845,845
22950,838,839
22955,837,842
22960,831,837
22965,818,836
22970,807,845
22975,793,840
22980,793,834
22985,786,832
22990,778,834
22995,778,832
23000,770,829
23005,761,830
23010,758,832
23015,762,825
23020,760,821
23025,753,826
23030,749,824
23035,749,827
23040,743,816
23045,740,810
23050,741,813
23055,737,812
23060,750,811
23065,755,801
23070,758,809
23075,765,803
23080,765,796
23085,779,797
23090,773,790
23095,773,784
23100,788,781
23105,797,780
23110,807,774
23115,824,775
23120,826,770
23125,827,762
23130,849,759
23135,854,762
23140,875,751
23145,869,751
23150,886,750
23155,900,737
23160,907,734
23165,923,735
23170,938,732
23175,943,734
23180,957,719
23185,965,718
23190,984,717
23195,987,711
23200,1004,707
23205,1022,699
23210,1035,704
23215,1039,696
23220,1052,699
23225,1064,694
23230,1077,696
23235,1082,693
23240,1089,692
23245,1096,691
23250,1105,693
23255,1111,687
23260,1127,692
23265,1133,688
23270,1136,689
23275,1145,688
23280,1157,691
23285,1153,688
23290,1167,686
23295,1169,691
23300,1169,692
23305,1177,696
23310,1173,699
23315,1178,704
23320,1182,703
23325,1180,709
23330,1183,710
23335,1184,714
23340,1191,723
23345,1192,722
23350,1182,727
23355,1189,735
23360,1183,742
23365,1188,748
23370,1179,748
23375,1182,755
23380,1172,757
23385,1184,763
23390,1168,770
23395,1159,775
23400,1169,782
23405,1161,779
23410,1174,792
23415,1164,790
23420,1146,808
23425,1151,803
23430,1144,810
23435,1147,816
23440,1148,820
23445,1142,826
23450,1137,831
23455,1133,834
23460,1135,843
23465,1124,847
23470,1115,845
23475,1128,852
23480,1116,856
23485,1120,863
23490,1112,867
23495,1109,865
23500,1113,866
23505,1110,872
23510,1099,875
23515,1102,873
23520,1097,876
23525,1091,878
23530,1102,885
23535,1090,887
23540,1084,882
23545,1082,877
23550,1083,881
23555,1081,882
23560,1077,886
23565,1086,882
23570,1075,882
23575,1074,879
23580,1067,882
23585,1070,882
23590,1066,882
23595,1052,880
23600,1044,877
23605,1054,876
23610,1051,876
23615,1035,875
23620,1038,873
23625,1041,877
23630,1034,871
23635,1024,874
23640,1020,872
23645,1013,867
23650,1010,868
23655,1004,858
23660,983,862
23665,986,864
23670,984,862
23675,971,855
23680,959,854
23685,950,857
23690,942,857
23695,936,849
23700,929,850
23705,920,850
23710,915,848
23715,902,849
23720,890,849
23725,883,846
23730,873,841
23735,868,849
23740,856,844
23745,851,835
23750,841,839
23755,843,840
23760,823,839
23765,818,845
23770,819,834
23775,801,837
23780,802,835
23785,789,831
23790,776,835
23795,781,830
23800,770,835
23805,768,829
23810,761,832
23815,761,827
23820,767,828
23825,751,824
23830,747,821
23835,749,821
23840,750,823
23845,742,815
23850,744,816
23855,752,811
23860,752,813
23865,753,808
23870,757,802
23875,755,799
23880,756,796
23885,767,795
23890,765,795
23895,783,786
23900,791,784
23905,804,777
23910,805,777
23915,810,770
23920,824,770
23925,824,767
23930,840,760
23935,847,757
23940,861,755
23945,866,753
23950,888,740
23955,894,738
23960,907,746
23965,924,736
23970,926,729
23975,949,728
23980,953,722
23985,956,724
23990,978,717
23995,992,711
24000,1015,710
24005,1012,707
24010,1034,704
24015,1035,701
24020,1050,698
24025,1058,695
24030,1069,701
24035,1078,693
24040,1107,686
24045,1087,692
24050,1117,686
24055,1123,685
24060,1123,692
24065,1131,689
24070,1138,685
24075,1143,687
24080,1160,691
24085,1159,692
24090,1164,694
24095,1171,690
24100,1173,692
24105,1186,690
24110,1186,691
24115,1184,704
24120,1186,709
24125,1182,710
24130,1182,711
24135,1192,720
24140,1186,720
24145,1188,719
24150,1184,730
24155,1184,733
24160,1179,738
24165,1186,742
24170,1180,740
24175,1183,751
24180,1175,759
24185,1189,771
24190,1170,768
24195,1182,768
24200,1169,773
24205,1169,788
24210,1157,790
24215,1161,795
24220,1159,803
24225,1144,801
24230,1152,810
24235,1147,812
24240,1139,824
24245,1130,821
24250,1132,829
24255,1138,836
24260,1141,837
24265,1125,845
24270,1124,846
24275,1110,849
24280,1124,851
24285,1115,862
24290,1119,863
24295,1120,861
24300,1105,866
24305,1109,870
24310,1107,876
24315,1097,873
24320,1099,876
24325,1098,875
24330,1091,877
24335,1087,877
24340,1086,884
24345,1087,881
24350,1077,884
24355,1084,881
24360,1087,882
24365,1086,886
24370,1072,886
24375,1068,884
24380,1068,888
24385,1066,880
24390,1061,885
24395,1054,881
24400,1064,884
24405,1054,882
24410,1049,878
24415,1037,879
24420,1035,870
24425,1028,873
24430,1029,872
24435,1024,871
24440,1024,865
24445,1016,870
24450,1007,866
24455,993,863
24460,996,864
24465,990,865
24470,980,861
24475,973,858
24480,960,860
24485,953,857
24490,949,855
24495,937,853
24500,929,855
24505,927,849
24510,917,851
24515,906,847
24520,902,846
24525,884,843
24530,883,849
24535,863,841
24540,847,846
24545,851,841
24550,835,842
24555,833,838
24560,831,840
24565,810,837
24570,810,838
24575,807,840
24580,798,835
24585,782,837
24590,785,837
24595,777,828
24600,769,833
24605,768,833
24610,755,827
24615,759,822
24620,762,829
24625,759,819
24630,748,820
24635,743,820
24640,748,816
24645,757,811
24650,744,812
24655,748,806
24660,756,807
24665,745,808
24670,761,807
24675,763,804
24680,772,795
24685,770,784
24690,782,795
24695,786,785
24700,790,781
24705,804,784
24710,803,780
24715,810,777
24720,822,770
24725,830,756
24730,834,764
24735,853,760
24740,854,752
24745,868,745
24750,887,747
24755,892,743
24760,903,738
24765,908,730
24770,930,734
24775,949,724
24780,956,725
24785,958,724
24790,973,711
24795,996,715
24800,1001,713
24805,1006,702
24810,1020,706
24815,1044,701
24820,1044,699
24825,1049,696
24830,1074,692
24835,1078,689
24840,1093,688
24845,1098,695
24850,1113,686
24855,1123,691
24860,1112,687
24865,1136,685
24870,1141,687
24875,1156,690
24880,1154,689
24885,1159,693
24890,1159,689
24895,1166,692
24900,1171,695
24905,1179,701
24910,1180,698
24915,1183,702
24920,1184,700
24925,1189,710
24930,1190,717
24935,1192,716
24940,1182,725
24945,1185,727
24950,1189,726
24955,1176,732
24960,1200,736
24965,1185,741
24970,1183,744
24975,1170,751
24980,1180,751
24985,1172,756
24990,1176,766
24995,1167,769
25000,1176,781
25005,1173,787
25010,1158,790
25015,1158,791
25020,1159,802
25025,1150,804
25030,1145,813
25035,1145,813
25040,1141,818
25045,1128,826
25050,1138,827
25055,1127,830
25060,1132,840
25065,1121,840
25070,1131,845
25075,1118,851
25080,1122,851
25085,1109,856
25090,1114,864
25095,1114,858
25100,1106,863
25105,1104,865
25110,1105,873
25115,1101,875
25120,1094,875
25125,1092,880
25130,1092,883
25135,1090,876
25140,1087,879
25145,1092,881
25150,1085,886
25155,1076,887
25160,1090,885
25165,1073,884
25170,1075,887
25175,1077,886
25180,1067,883
25185,1069,879
25190,1065,875
25195,1054,876
25200,1057,876
25205,1045,878
25210,1053,877
25215,1038,875
25220,1048,877
25225,1044,875
25230,1026,874
25235,1026,874
25240,1018,863
25245,1014,869
25250,1009,864
25255,996,862
25260,995,864
25265,984,859
25270,972,866
25275,980,858
25280,962,860
25285,954,860
25290,948,852
25295,937,855
25300,931,860
25305,922,846
25310,914,846
25315,912,853
25320,895,848
25325,894,849
25330,887,848
25335,879,843
25340,862,841
25345,858,844
25350,839,840
25355,845,839
25360,824,836
25365,814,841
25370,807,843
25375,800,841
25380,791,836
25385,789,832
25390,784,835
25395,771,836
25400,762,831
25405,758,835
25410,772,829
25415,755,828
25420,749,832
25425,759,825
25430,754,818
25435,759,817
25440,742,818
25445,750,814
25450,756,810
25455,744,811
25460,752,811
25465,756,807
25470,750,806
25475,766,810
25480,766,802
25485,764,793
25490,771,788
25495,780,791
25500,787,786
25505,800,777
25510,803,777
25515,808,772
25520,822,769
25525,827,765
25530,839,768
25535,847,759
25540,850,751
25545,863,753
25550,875,742
25555,886,742
25560,904,739
25565,921,731
25570,931,734
25575,938,726
25580,954,728
25585,961,720
25590,979,717
25595,992,714
25600,996,715
25605,1014,710
25610,1024,707
25615,1033,703
25620,1033,693
25625,1060,701
25630,1069,694
25635,1082,693
25640,1084,691
25645,1095,688
25650,1102,695
25655,1112,690
25660,1125,692
25665,1140,690
25670,1127,691
25675,1145,687
25680,1158,690
25685,1150,685
25690,1164,695
25695,1158,696
25700,1174,695
25705,1181,695
25710,1169,696
25715,1189,706
25720,1183,705
25725,1190,708
25730,1188,706
25735,1191,714
25740,1185,724
25745,1188,725
25750,1178,728
25755,1191,733
25760,1188,734
25765,1177,739
25770,1176,747
25775,1192,751
25780,1186,750
25785,1178,761
25790,1180,766
25795,1170,774
25800,1162,778
25805,1170,777
25810,1157,786
25815,1158,794
25820,1148,796
25825,1158,798
25830,1141,807
25835,1153,821
25840,1138,814
25845,1146,817
25850,1137,833
25855,1136,829
25860,1123,836
25865,1125,838
25870,1129,847
25875,1119,845
25880,1125,852
25885,1116,856
25890,1108,862
25895,1112,869
25900,1110,861
25905,1109,874
25910,1116,869
25915,1096,872
25920,1096,876
25925,1100,876
25930,1096,878
25935,1102,879
25940,1085,879
25945,1090,884
25950,1083,880
25955,1094,881
25960,1081,881
25965,1081,879
25970,1078,883
25975,1076,883
25980,1074,882
25985,1072,877
25990,1065,883
25995,1061,878
26000,1061,881
26005,1049,877
26010,1050,874
26015,1054,872
26020,1043,875
26025,1037,876
26030,1025,875
26035,1018,873
26040,1016,868
26045,1007,867
26050,1010,867
26055,1003,869
26060,988,861
26065,983,864
26070,973,861
26075,975,856
26080,960,860
26085,949,854
26090,952,855
26095,941,857
26100,934,857
26105,926,853
26110,910,847
26115,899,846
26120,913,848
26125,891,851
26130,876,844
26135,860,845
26140,863,841
26145,853,846
26150,846,847
26155,844,840
26160,832,839
26165,823,841
26170,808,838
26175,807,840
26180,794,836
26185,790,831
26190,780,829
26195,781,834
26200,760,830
26205,770,829
26210,754,833
26215,752,825
26220,754,826
26225,757,827
26230,744,826
26235,747,819
26240,746,816
26245,739,819
26250,742,817
26255,748,813
26260,741,810
26265,756,798
26270,754,808
26275,767,809
26280,766,795
26285,768,791
26290,776,788
26295,774,784
26300,778,787
26305,793,783
26310,797,789
26315,806,773
26320,816,772
26325,830,768
26330,832,763
26335,851,757
26340,857,750
26345,869,748
26350,877,746
26355,887,745
26360,896,745
26365,919,742
26370,927,731
26375,941,728
26380,948,721
26385,972,717
26390,968,717
26395,986,712
26400,1003,711
26405,1017,709
26410,1020,706
26415,1038,705
26420,1044,696
26425,1059,696
26430,1067,698
26435,1075,690
26440,1093,698
26445,1094,693
26450,1105,692
26455,1101,691
26460,1118,692
26465,1130,690
26470,1133,690
26475,1144,687
26480,1148,690
26485,1149,687
26490,1159,692
26495,1167,696
26500,1169,699
26505,1173,694
26510,1180,700
26515,1182,700
26520,1179,705
26525,1197,704
26530,1180,707
26535,1187,716
26540,1184,718
26545,1176,718
26550,1196,723
26555,1187,728
26560,1193,728
26565,1187,737
26570,1186,746
26575,1183,757
26580,1180,754
26585,1177,756
26590,1174,762
26595,1176,772
26600,1163,778
26605,1164,784
26610,1164,790
26615,1155,795
26620,1154,797
26625,1142,800
26630,1148,810
26635,1159,810
26640,1142,819
26645,1137,824
26650,1143,825
26655,1133,835
26660,1135,831
26665,1113,843
26670,1123,846
26675,1119,849
26680,1123,854
26685,1119,855
26690,1121,859
26695,1107,865
26700,1104,864
26705,1109,870
26710,1111,865
26715,1104,874
26720,1102,874
26725,1101,874
26730,1092,881
26735,1095,887
26740,1083,881
26745,1087,879
26750,1091,886
26755,1084,888
26760,1068,884
26765,1076,885
26770,1074,879
26775,1081,878
26780,1068,884
26785,1061,881
26790,1068,882
26795,1067,881
26800,1051,878
26805,1057,876
26810,1056,876
26815,1043,873
26820,1044,877
26825,1042,878
26830,1032,875
26835,1025,870
26840,1012,872
26845,1007,868
26850,1006,869
26855,1001,866
26860,998,869
26865,980,866
26870,975,863
26875,978,866
26880,976,856
26885,950,861
26890,954,858
26895,939,854
26900,930,857
26905,925,849
26910,911,854
26915,900,847
26920,896,846
26925,878,842
26930,872,848
26935,875,844
26940,862,845
26945,849,843
26950,849,843
26955,827,845
26960,823,836
26965,818,841
26970,813,840
26975,808,845
26980,800,840
26985,791,834
26990,786,830
26995,776,831
27000,772,832
27005,769,834
27010,753,831
27015,758,823
27020,748,823
27025,752,826
27030,756,823
27035,752,824
27040,744,815
27045,747,819
27050,756,819
27055,754,808
27060,750,812
27065,755,801
27070,754,803
27075,756,800
27080,754,801
27085,763,798
27090,772,794
27095,784,788
27100,791,787
27105,793,785
27110,782,775
27115,810,780
27120,820,772
27125,824,767
27130,837,765
27135,849,761
27140,854,751
27145,863,750
27150,880,746
27155,893,741
27160,900,733
27165,909,731
27170,927,735
27175,936,728
27180,948,727
27185,966,717
27190,979,716
27195,981,713
27200,1002,709
27205,1012,704
27210,1019,703
27215,1030,703
27220,1052,698
27225,1053,692
27230,1058,697
27235,1085,692
27240,1082,698
27245,1090,685
27250,1108,697
27255,1109,688
27260,1121,692
27265,1130,685
27270,1136,688
27275,1141,687
27280,1151,691
27285,1160,689
27290,1161,692
27295,1166,692
27300,1169,689
27305,1175,695
27310,1169,699
27315,1178,707
27320,1180,706
27325,1186,704
27330,1194,710
27335,1181,710
27340,1194,718
27345,1181,724
27350,1182,729
27355,1193,733
27360,1181,738
27365,1182,738
27370,1182,746
27375,1181,748
27380,1188,757
27385,1172,759
27390,1173,767
27395,1169,769
27400,1171,776
27405,1166,780
27410,1153,786
27415,1158,789
27420,1153,794
27425,1161,796
27430,1146,809
27435,1146,809
27440,1147,818
27445,1131,825
27450,1134,830
27455,1135,829
27460,1129,841
27465,1132,842
27470,1124,840
27475,1131,852
27480,1115,853
27485,1109,856
27490,1114,860
27495,1104,863
27500,1098,867
27505,1103,866
27510,1106,873
27515,1108,875
27520,1096,871
27525,1099,872
27530,1081,879
27535,1093,877
27540,1086,888
27545,1082,883
27550,1086,885
27555,1090,884
27560,1083,882
27565,1078,891
27570,1077,886
27575,1074,886
27580,1069,886
27585,1071,887
27590,1061,880
27595,1065,881
27600,1060,879
27605,1055,876
27610,1050,872
27615,1050,874
27620,1042,874
27625,1036,874
27630,1027,871
27635,1026,868
27640,1033,874
27645,1023,864
27650,1003,866
27655,1007,865
27660,1002,865
27665,991,860
27670,985,857
27675,975,854
27680,963,858
27685,951,856
27690,951,854
27695,942,852
27700,941,853
27705,930,851
27710,903,853
27715,914,851
27720,898,845
27725,884,843
27730,883,845
27735,876,846
27740,866,851
27745,846,845
27750,841,838
27755,838,844
27760,825,836
27765,810,841
27770,813,833
27775,813,837
27780,802,839
27785,788,838
27790,781,835
27795,784,834
27800,774,829
27805,766,834
27810,762,833
27815,755,825
27820,762,827
27825,751,828
27830,742,821
27835,749,818
27840,752,818
27845,747,813
27850,748,815
27855,738,812
27860,747,808
27865,754,808
27870,751,805
27875,752,803
27880,755,800
27885,760,800
27890,773,791
27895,775,797
27900,783,789
27905,792,787
27910,803,781
27915,807,774
27920,816,766
27925,831,766
27930,832,765
27935,844,761
27940,866,757
27945,856,756
27950,878,748
27955,883,750
27960,900,739
27965,905,741
27970,926,735
27975,930,731
27980,950,724
27985,966,718
27990,972,717
27995,986,714
28000,993,706
28005,1006,706
28010,1019,706
28015,1041,701
28020,1034,699
28025,1052,699
28030,1061,698
28035,1082,690
28040,1087,691
28045,1087,688
28050,1105,689
28055,1110,688
28060,1119,686
28065,1131,689
28070,1132,689
28075,1145,689
28080,1153,690
28085,1155,685
28090,1158,691
28095,1165,693
28100,1168,696
28105,1175,694
28110,1174,704
28115,1170,701
28120,1184,702
28125,1182,708
28130,1185,707
28135,1177,717
28140,1188,712
28145,1187,718
28150,1185,728
28155,1186,733
28160,1182,743
28165,1185,737
28170,1190,748
28175,1183,751
28180,1171,760
28185,1182,763
28190,1179,767
28195,1177,772
28200,1169,773
28205,1166,777
28210,1158,789
28215,1163,794
28220,1161,795
28225,1156,800
28230,1150,807
28235,1140,816
28240,1142,813
28245,1137,816
28250,1132,826
28255,1137,836
28260,1143,837
28265,1137,841
28270,1122,845
28275,1119,843
28280,1114,848
28285,1115,857
28290,1113,860
28295,1105,866
28300,1100,866
28305,1115,865
28310,1104,871
28315,1097,872
28320,1108,877
28325,1096,873
28330,1102,875
28335,1097,881
28340,1093,884
28345,1090,884
28350,1086,882
28355,1075,882
28360,1084,883
28365,1076,888
28370,1078,885
28375,1076,880
28380,1059,888
28385,1073,885
28390,1066,888
28395,1067,880
28400,1059,884
28405,1055,881
28410,1047,877
28415,1039,876
28420,1038,877
28425,1029,877
28430,1038,877
28435,1033,870
28440,1020,865
28445,1025,866
28450,1011,869
28455,1006,861
28460,995,863
28465,994,860
28470,983,867
28475,971,855
28480,974,861
28485,958,857
28490,957,854
28495,941,854
28500,935,853
28505,931,852
28510,915,850
28515,913,850
28520,908,850
28525,894,849
28530,886,844
28535,879,848
28540,868,841
28545,850,843
28550,844,844
28555,828,841
28560,830,839
28565,818,838
28570,818,840
28575,807,830
28580,799,835
28585,789,841
28590,788,833
28595,780,835
28600,782,835
28605,776,832
28610,761,832
28615,755,828
28620,759,829
28625,762,822
28630,752,822
28635,747,824
28640,743,825
28645,749,819
28650,753,818
28655,749,812
28660,762,812
28665,762,807
28670,755,800
28675,761,803
28680,764,795
28685,771,801
28690,766,795
28695,783,788
28700,791,789
28705,789,787
28710,801,780
28715,807,776
28720,819,771
28725,827,764
28730,838,764
28735,845,761
28740,858,761
28745,869,750
28750,879,746
28755,885,746
28760,909,744
28765,901,742
28770,924,731
28775,940,730
28780,947,725
28785,961,722
28790,963,717
28795,981,708
28800,996,715
28805,1009,715
28810,1012,703
28815,1032,701
28820,1044,697
28825,1058,694
28830,1067,696
28835,1075,694
28840,1082,693
28845,1096,691
28850,1106,687
28855,1117,682
28860,1120,696
28865,1129,687
28870,1139,695
28875,1144,687
28880,1143,691
28885,1148,690
28890,1156,687
28895,1167,693
28900,1169,693
28905,1168,694
28910,1181,695
28915,1185,698
28920,1175,701
28925,1184,705
28930,1191,708
28935,1183,713
28940,1185,710
28945,1184,717
28950,1187,726
28955,1190,729
28960,1182,731
28965,1186,742
28970,1186,743
28975,1173,753
28980,1174,752
28985,1183,761
28990,1179,764
28995,1161,776
29000,1172,772
29005,1175,775
29010,1155,786
29015,1168,794
29020,1158,797
29025,1157,803
29030,1148,805
29035,1144,811
29040,1139,819
29045,1135,821
29050,1132,828
29055,1133,831
29060,1138,833
29065,1134,842
29070,1124,843
29075,1121,851
29080,1125,854
29085,1112,863
29090,1112,858
29095,1116,862
29100,1112,859
29105,1106,871
29110,1113,869
29115,1094,875
29120,1106,875
29125,1102,876
29130,1097,877
29135,1095,882
29140,1085,880
29145,1086,885
29150,1072,884
29155,1091,884
29160,1088,886
29165,1080,887
29170,1083,888
29175,1072,881
29180,1067,888
29185,1072,880
29190,1062,881
29195,1062,880
29200,1053,883
29205,1057,880
29210,1055,877
29215,1050,877
29220,1039,871
29225,1040,878
29230,1021,871
29235,1029,870
29240,1013,877
29245,1008,870
29250,1007,871
29255,1008,870
29260,991,864
29265,994,866
29270,981,860
29275,979,861
29280,974,859
29285,967,858
29290,951,859
29295,938,855
29300,939,853
29305,922,851
29310,916,854
29315,916,853
29320,903,846
29325,894,850
29330,882,846
29335,881,839
29340,871,848
29345,862,840
29350,848,841
29355,843,839
29360,840,844
29365,833,837
29370,814,838
29375,806,835
29380,799,838
29385,796,840
29390,783,838
29395,784,833
29400,775,830
29405,773,826
29410,762,829
29415,768,831
29420,760,832
29425,750,825
29430,762,830
29435,744,819
29440,755,819
29445,741,817
29450,747,813
29455,757,817
29460,740,808
29465,746,803
29470,751,804
29475,755,799
29480,770,797
29485,773,801
29490,770,799
29495,773,790
29500,784,794
29505,787,779
29510,797,780
29515,800,779
29520,811,776
29525,822,773
29530,839,762
29535,836,758
29540,854,756
29545,864,749
29550,874,745
29555,891,745
29560,887,740
29565,905,742
29570,922,733
29575,940,731
29580,938,726
29585,959,723
29590,963,722
29595,981,718
29600,989,714
29605,1011,710
29610,1017,705
29615,1025,704
29620,1036,698
29625,1057,692
29630,1057,699
29635,1061,694
29640,1090,694
29645,1095,689
29650,1099,684
29655,1112,688
29660,1119,688
29665,1126,685
29670,1132,688
29675,1141,690
29680,1152,685
29685,1148,687
29690,1159,690
29695,1161,695
29700,1158,693
29705,1183,697
29710,1172,700
29715,1173,696
29720,1197,701
29725,1191,699
29730,1191,713
29735,1193,710
29740,1186,711
29745,1185,720
29750,1184,717
29755,1183,726
29760,1187,732
29765,1183,742
29770,1184,744
29775,1185,751
29780,1180,751
29785,1185,757
29790,1177,762
29795,1173,773
29800,1175,775
29805,1169,781
29810,1165,781
29815,1152,791
29820,1155,793
29825,1154,798
29830,1152,809
29835,1144,810
29840,1137,817
29845,1130,821
29850,1142,828
29855,1131,830
29860,1129,832
29865,1138,840
29870,1120,843
29875,1121,849
29880,1120,852
29885,1114,855
29890,1108,860
29895,1118,862
29900,1113,865
29905,1104,869
29910,1101,873
29915,1107,869
29920,1099,875
29925,1106,872
29930,1100,873
29935,1087,881
29940,1087,880
29945,1085,878
29950,1092,881
29955,1085,883
29960,1073,879
29965,1078,882
29970,1074,881
29975,1078,885
29980,1075,886
29985,1066,883
29990,1069,884
29995,1064,881
30000,1052,877
30005,1050,880
30010,1052,878
30015,1043,878
30020,1045,880
30025,1050,875
30030,1035,878
30035,1025,873
30040,1020,866
30045,1024,864
30050,1020,860
30055,1006,867
30060,1008,862
30065,990,861
30070,985,867
30075,975,860
30080,961,861
30085,966,854
30090,948,856
30095,945,858
30100,937,857
30105,938,857
30110,930,852
30115,915,848
30120,904,848
30125,892,849
30130,882,849
30135,873,844
30140,868,840
30145,854,846
30150,850,842
30155,839,841
30160,828,839
30165,829,844
30170,815,836
30175,804,840
30180,800,836
30185,802,835
30190,787,834
30195,790,836
30200,769,832
30205,768,833
30210,762,828
30215,771,826
30220,758,825
30225,755,826
30230,752,819
30235,753,821
30240,744,817
30245,746,814
30250,741,815
30255,749,814
30260,753,807
30265,752,809
30270,751,803
30275,758,804
30280,755,801
30285,771,798
30290,770,795
30295,768,792
30300,789,786
30305,792,784
30310,794,785
30315,809,779
30320,817,778
30325,819,768
30330,837,763
30335,846,766
30340,847,762
30345,862,750
30350,874,754
30355,884,748
30360,890,739
30365,907,740
30370,923,733
30375,935,730
30380,944,732
30385,960,724
30390,967,720
30395,972,718
30400,992,705
30405,999,708
30410,1013,703
30415,1018,699
30420,1035,701
30425,1042,692
30430,1072,692
30435,1072,694
30440,1073,693
30445,1076,689
30450,1100,684
30455,1106,689
30460,1117,691
30465,1125,690
30470,1139,680
30475,1145,688
30480,1143,685
30485,1158,690
30490,1153,690
30495,1165,692
30500,1167,691
30505,1176,695
30510,1173,694
30515,1184,701
30520,1179,700
30525,1193,708
30530,1195,701
30535,1185,711
30540,1184,716
30545,1188,719
30550,1186,724
30555,1190,727
30560,1190,735
30565,1184,741
30570,1183,739
30575,1193,745
30580,1176,756
30585,1181,758
30590,1176,759
30595,1175,763
30600,1169,774
30605,1165,775
30610,1164,789
30615,1166,792
30620,1160,791
30625,1153,803
30630,1140,807
30635,1146,808
30640,1147,817
30645,1137,816
30650,1143,825
30655,1130,831
30660,1131,836
30665,1127,838
30670,1126,843
30675,1120,847
30680,1121,851
30685,1120,855
30690,1105,856
30695,1113,863
30700,1116,866
30705,1095,869
30710,1102,873
30715,1100,871
30720,1100,876
30725,1091,874
30730,1096,878
30735,1102,883
30740,1099,876
30745,1092,885
30750,1096,883
30755,1080,882
30760,1092,880
30765,1080,885
30770,1077,883
30775,1073,887
30780,1065,882
30785,1076,880
30790,1071,881
30795,1057,884
30800,1054,881
30805,1054,884
30810,1061,878
30815,1051,874
30820,1036,877
30825,1040,873
30830,1038,874
30835,1029,872
30840,1027,868
30845,1013,872
30850,1019,859
30855,1001,868
30860,1007,867
30865,1000,858
30870,986,857
30875,979,860
30880,974,858
30885,963,864
30890,950,857
30895,947,856
30900,942,853
30905,930,857
30910,928,850
30915,907,846
30920,909,853
30925,906,846
30930,880,848
30935,874,850
30940,868,839
30945,850,845
30950,850,844
30955,852,839
30960,829,841
30965,823,839
30970,813,839
30975,808,836
30980,797,833
30985,791,836
30990,786,836
30995,786,837
31000,770,830
31005,768,833
31010,764,826
31015,763,828
31020,756,824
31025,758,829
31030,753,828
31035,746,824
31040,753,818
31045,748,818
31050,752,815
31055,745,817
31060,750,805
31065,758,809
31070,754,805
31075,757,804
31080,768,803
31085,767,796
31090,776,794
31095,777,791
31100,781,787
31105,793,784
31110,795,781
31115,809,777
31120,810,769
31125,823,772
31130,833,771
31135,834,763
31140,858,756
31145,853,752
31150,864,747
31155,878,743
31160,883,745
31165,902,737
31170,917,735
31175,926,730
31180,942,726
31185,959,725
31190,973,721
31195,978,718
31200,997,707
31205,1002,711
31210,1015,706
31215,1026,705
31220,1037,697
31225,1052,700
31230,1058,695
31235,1072,693
31240,1077,691
31245,1092,691
31250,1097,689
31255,1105,696
31260,1126,689
31265,1122,687
31270,1134,684
31275,1151,687
31280,1147,690
31285,1164,684
31290,1158,692
31295,1159,684
31300,1171,694
31305,1165,687
31310,1185,700
31315,1173,701
31320,1167,701
31325,1181,702
31330,1183,706
31335,1180,712
31340,1188,716
31345,1186,714
31350,1181,726
31355,1188,729
31360,1196,733
31365,1177,735
31370,1185,744
31375,1180,745
31380,1177,752
31385,1174,759
31390,1175,761
31395,1174,768
31400,1171,771
31405,1165,780
31410,1168,786
31415,1154,793
31420,1157,794
31425,1154,801
31430,1155,801
31435,1151,809
31440,1148,814
31445,1147,816
31450,1138,827
31455,1138,830
31460,1131,830
31465,1127,841
31470,1117,844
31475,1125,841
31480,1128,849
31485,1109,853
31490,1111,855
31495,1110,865
31500,1118,867
31505,1112,868
31510,1107,865
31515,1099,870
31520,1098,876
31525,1094,875
31530,1104,881
31535,1098,877
31540,1089,882
31545,1090,877
31550,1074,881
31555,1087,885
31560,1078,882
31565,1084,885
31570,1072,885
31575,1072,882
31580,1076,889
31585,1071,883
31590,1071,885
31595,1068,885
31600,1069,879
31605,1057,881
31610,1056,876
31615,1044,883
31620,1057,874
31625,1034,874
31630,1026,874
31635,1038,876
31640,1019,872
31645,1019,865
31650,1010,867
31655,1012,863
31660,996,861
31665,989,865
31670,985,862
31675,982,860
31680,965,863
31685,955,855
31690,955,857
31695,941,855
31700,943,853
31705,931,851
31710,920,850
31715,913,855
31720,903,848
31725,900,851
31730,883,844
31735,877,839
31740,877,851
31745,860,847
31750,850,841
31755,847,842
31760,839,838
31765,830,843
31770,810,844
31775,818,842
31780,809,840
31785,797,834
31790,782,838
31795,780,837
31800,777,831
31805,771,835
31810,767,826
31815,763,826
31820,761,826
31825,749,825
31830,752,820
31835,746,822
31840,751,821
31845,747,819
31850,747,821
31855,751,814
31860,751,810
31865,748,806
31870,750,801
31875,767,805
31880,761,802
31885,773,798
31890,776,794
31895,780,792
31900,787,791
31905,793,785
31910,794,780
31915,810,780
31920,819,779
31925,819,769
31930,837,764
31935,843,759
31940,846,759
31945,867,756
31950,869,754
31955,885,744
31960,890,745
31965,908,735
31970,907,733
31975,921,727
31980,941,731
31985,958,725
31990,970,722
31995,977,713
