timestamp_ms,ir_finger,ir_toe
0,1041,653
5,1052,652
10,1072,663
15,1076,671
20,1091,676
25,1092,686
30,1111,683
35,1124,688
40,1120,698
45,1133,708
50,1133,708
55,1140,716
60,1144,719
65,1161,738
70,1164,740
75,1160,749
80,1165,756
85,1184,760
90,1179,774
95,1180,784
100,1187,791
105,1183,801
110,1188,806
115,1196,814
120,1181,828
125,1190,830
130,1186,839
135,1187,846
140,1193,851
145,1175,855
150,1185,864
155,1182,868
160,1178,872
165,1176,881
170,1180,887
175,1168,890
180,1165,898
185,1160,894
190,1153,906
195,1157,909
200,1157,908
205,1148,909
210,1143,918
215,1143,916
220,1144,919
225,1127,925
230,1132,922
235,1135,924
240,1132,924
245,1127,922
250,1122,921
255,1119,924
260,1115,925
265,1116,929
270,1115,917
275,1102,919
280,1102,916
285,1098,912
290,1100,917
295,1100,917
300,1093,912
305,1095,909
310,1089,907
315,1090,903
320,1084,904
325,1095,899
330,1075,898
335,1081,895
340,1088,892
345,1081,891
350,1062,885
355,1070,887
360,1063,885
365,1072,883
370,1067,885
375,1048,877
380,1047,874
385,1048,875
390,1052,876
395,1036,867
400,1034,863
405,1037,867
410,1018,872
415,1016,868
420,1014,861
425,1001,861
430,1000,863
435,989,857
440,988,860
445,964,859
450,974,857
455,953,849
460,950,857
465,938,854
470,937,855
475,928,842
480,913,846
485,907,843
490,903,840
495,883,837
500,878,833
505,871,833
510,860,831
515,847,827
520,849,826
525,836,822
530,830,814
535,813,813
540,804,808
545,796,803
550,792,802
555,783,792
560,781,788
565,774,786
570,777,778
575,758,776
580,752,770
585,754,763
590,760,754
595,747,750
600,744,750
605,748,745
610,743,737
615,744,727
620,754,728
625,760,719
630,746,712
635,749,704
640,760,697
645,764,689
650,774,686
655,773,683
660,779,674
665,786,678
670,792,668
675,802,665
680,818,664
685,823,657
690,836,652
695,844,655
700,845,644
705,863,642
710,881,640
715,884,639
720,894,636
725,907,634
730,911,631
735,928,637
740,949,633
745,956,629
750,972,640
755,978,639
760,997,639
765,1009,643
770,1013,646
775,1029,646
780,1033,649
785,1053,655
790,1067,658
795,1085,670
800,1081,668
805,1101,677
810,1109,683
815,1123,699
820,1133,691
825,1125,706
830,1139,709
835,1147,718
840,1152,726
845,1167,732
850,1166,740
855,1170,744
860,1180,758
865,1178,767
870,1187,778
875,1192,784
880,1177,801
885,1182,802
890,1183,811
895,1193,816
900,1194,828
905,1189,823
910,1182,835
915,1190,845
920,1185,850
925,1188,859
930,1189,860
935,1186,871
940,1184,873
945,1175,880
950,1164,889
955,1172,892
960,1172,895
965,1165,906
970,1151,903
975,1165,910
980,1148,910
985,1143,916
990,1137,917
995,1138,915
1000,1140,922
1004,1133,924
1010,1128,920
1014,1124,918
1020,1122,920
1025,1123,927
1030,1122,923
1035,1115,915
1040,1121,923
1045,1101,918
1050,1110,917
1055,1108,919
1060,1105,922
1065,1105,913
1070,1098,919
1075,1098,912
1080,1083,906
1085,1092,907
1090,1093,911
1095,1089,907
1100,1084,898
1105,1086,899
1110,1078,899
1115,1082,895
1120,1077,891
1125,1080,890
1130,1071,891
1135,1073,882
1140,1067,880
1145,1064,879
1150,1069,874
1155,1057,881
1160,1042,880
1165,1044,872
1170,1044,875
1175,1028,872
1180,1035,865
1185,1028,862
1190,1016,874
1195,1015,865
1200,1010,860
1205,1003,867
1210,992,865
1215,979,855
1220,990,854
1225,980,854
1230,968,856
1235,956,849
1240,944,853
1245,932,853
1250,924,853
1255,924,846
1260,918,843
1265,905,845
1270,896,839
1275,890,838
1280,872,835
1285,877,836
1290,862,829
1295,853,829
1300,841,821
1305,835,818
1310,824,818
1315,817,812
1320,810,812
1325,801,801
1330,791,799
1335,791,799
1340,784,792
1345,772,786
1350,771,787
1355,773,780
1360,757,771
1365,753,764
1370,754,760
1375,744,755
1380,750,747
1385,742,738
1390,747,734
1395,751,726
1400,748,727
1405,759,719
1410,750,709
1415,761,701
1420,763,702
1425,765,697
1430,769,693
1435,773,679
1440,782,679
1445,783,679
1450,798,663
1455,802,665
1460,803,663
1465,827,658
1470,835,648
1475,840,645
1480,850,643
1485,865,640
1490,870,637
1495,885,643
1500,896,636
1505,906,638
1510,922,636
1515,933,636
1520,950,633
1525,960,636
1530,961,636
1535,982,637
1540,1001,640
1545,1004,642
1550,1016,645
1555,1032,647
1560,1039,656
1565,1054,652
1570,1065,667
1575,1077,666
1580,1086,666
1585,1101,677
1590,1108,687
1595,1111,691
1600,1119,696
1605,1126,709
1610,1132,708
1615,1137,722
1620,1152,726
1625,1161,736
1630,1159,740
1635,1165,748
1640,1167,750
1645,1171,761
1650,1175,772
1655,1178,786
1660,1192,783
1665,1190,800
1670,1193,805
1675,1184,815
1680,1187,822
1685,1195,836
1690,1183,839
1695,1187,842
1700,1184,851
1705,1180,857
1710,1178,866
1715,1181,869
1720,1176,873
1725,1178,879
1730,1179,882
1735,1172,892
1740,1170,895
1745,1161,904
1750,1168,902
1755,1159,909
1760,1150,913
1765,1146,916
1770,1135,918
1775,1139,918
1780,1137,917
1785,1132,923
1790,1130,922
1795,1131,920
1800,1126,927
1805,1122,927
1810,1118,927
1815,1122,919
1820,1118,925
1825,1117,919
1830,1114,918
1835,1105,919
1840,1108,926
1845,1101,918
1850,1096,913
1855,1091,912
1860,1102,911
1865,1103,906
1870,1091,903
1875,1093,910
1880,1089,900
1885,1088,903
1890,1077,904
1895,1075,897
1900,1077,894
1905,1083,894
1910,1074,889
1915,1067,885
1920,1064,884
1925,1063,884
1930,1052,880
1935,1059,880
1940,1047,876
1945,1048,875
1950,1042,880
1955,1036,871
1960,1032,867
1965,1026,872
1970,1014,866
1975,1017,871
1980,1002,867
1985,1009,862
1990,995,858
1995,989,866
2000,979,859
2005,976,858
2009,960,856
2015,949,850
2020,950,851
2025,941,850
2029,933,848
2035,924,845
2040,914,849
2045,900,843
2050,894,840
2055,890,838
2060,884,839
2065,864,832
2070,869,830
2075,864,827
2080,839,823
2085,828,815
2090,815,818
2095,822,818
2100,807,806
2105,802,809
2110,792,797
2115,778,793
2120,781,788
2125,774,785
2130,775,780
2135,768,776
2140,755,769
2145,757,768
2150,747,765
2155,745,759
2160,753,748
2165,756,745
2170,751,740
2175,743,726
2180,744,724
2185,753,716
2190,757,711
2195,754,704
2200,762,701
2205,768,695
2210,774,690
2215,770,682
2220,782,683
2225,786,675
2230,798,667
2235,805,665
2240,816,660
2245,815,657
2250,831,649
2255,836,645
2260,846,647
2265,864,638
2270,874,637
2275,888,643
2280,895,637
2285,906,633
2290,912,637
2295,930,639
2300,939,636
2305,959,633
2310,973,636
2315,982,641
2320,996,635
2325,1012,643
2330,1014,643
2335,1025,650
2340,1041,654
2345,1045,657
2350,1060,658
2355,1072,666
2360,1084,671
2365,1094,675
2370,1103,684
2375,1109,689
2380,1122,697
2385,1133,706
2390,1135,712
2395,1147,717
2400,1148,726
2405,1160,736
2410,1167,742
2415,1162,746
2420,1172,755
2425,1183,767
2430,1185,773
2435,1186,779
2440,1185,787
2445,1174,801
2450,1189,805
2455,1188,814
2460,1188,822
2465,1176,828
2470,1184,838
2475,1183,844
2480,1179,854
2485,1190,859
2490,1188,869
2495,1185,874
2500,1176,877
2505,1176,884
2510,1169,886
2515,1164,889
2520,1161,892
2525,1169,904
2530,1151,904
2535,1150,901
2540,1155,916
2545,1150,915
2550,1145,913
2555,1148,918
2560,1144,924
2565,1137,920
2570,1127,928
2575,1132,922
2580,1128,924
2585,1127,922
2590,1117,926
2595,1113,926
2600,1114,925
2605,1122,917
2610,1105,917
2615,1103,915
2620,1107,916
2625,1106,913
2630,1107,910
2635,1097,916
2640,1083,910
2645,1092,908
2650,1090,904
2655,1078,906
2660,1097,901
2665,1076,901
2670,1083,902
2675,1080,898
2680,1076,891
2685,1076,892
2690,1068,894
2695,1066,885
2700,1070,881
2705,1067,884
2710,1055,879
2715,1059,883
2720,1058,880
2725,1046,878
2730,1032,872
2735,1045,873
2740,1037,867
2745,1018,864
2750,1013,869
2755,1026,866
2760,1014,860
2765,1004,867
2770,996,860
2775,990,861
2780,980,855
2785,980,858
2790,965,857
2795,952,856
2800,951,856
2805,949,849
2810,934,844
2815,921,844
2820,911,840
2825,910,838
2830,895,835
2835,889,841
2840,872,836
2845,877,834
2850,863,830
2855,849,823
2860,841,822
2865,835,812
2870,832,818
2875,819,813
2880,802,803
2885,805,805
2890,793,801
2895,784,797
2900,789,797
2905,773,788
2910,775,783
2915,770,774
2920,751,775
2925,753,758
2930,759,756
2935,750,751
2940,758,746
2945,750,737
2950,737,735
2955,741,730
2960,750,728
2965,746,717
2970,759,710
2975,757,707
2980,753,697
2985,761,697
2990,758,691
2995,778,684
3000,781,669
3005,796,672
3010,791,675
3015,801,666
3020,804,657
3025,818,657
3030,827,648
3035,837,647
3040,854,645
3045,862,644
3050,869,641
3055,880,642
3060,890,636
3065,910,637
3070,917,635
3075,934,634
3080,940,636
3085,950,634
3090,973,630
3095,984,646
3100,997,636
3105,1001,641
3110,1022,650
3115,1026,647
3120,1044,651
3125,1049,657
3130,1061,665
3135,1074,665
3140,1090,670
3145,1098,677
3150,1100,686
3155,1101,693
3160,1126,696
3165,1131,706
3170,1132,706
3175,1143,718
3180,1159,728
3185,1155,738
3190,1161,742
3195,1160,747
3200,1163,757
3205,1184,768
3210,1182,772
3215,1183,783
3220,1177,793
3225,1189,797
3230,1190,806
3235,1190,809
3240,1187,825
3245,1194,831
3250,1186,835
3255,1191,844
3260,1192,849
3265,1187,855
3270,1193,865
3275,1181,870
3280,1179,880
3285,1174,884
3290,1181,885
3295,1172,889
3300,1169,893
3305,1167,902
3310,1164,903
3315,1164,911
3320,1151,909
3325,1150,918
3330,1149,917
3335,1149,922
3340,1134,923
3345,1142,921
3350,1138,928
3355,1132,927
3360,1124,924
3365,1123,918
3370,1121,929
3375,1124,925
3380,1118,923
3385,1124,923
3390,1100,914
3395,1107,925
3400,1107,920
3405,1094,918
3410,1101,913
3415,1110,911
3420,1093,914
3425,1081,912
3430,1089,906
3435,1091,905
3440,1079,898
3445,1086,900
3450,1080,898
3455,1076,895
3460,1080,889
3465,1079,889
3470,1073,889
3475,1074,887
3480,1058,885
3485,1065,879
3490,1065,877
3495,1046,879
3500,1052,879
3505,1037,872
3510,1054,875
3515,1040,874
3520,1025,868
3525,1031,866
3530,1019,864
3535,1014,864
3540,1010,858
3545,999,865
3550,998,869
3555,992,858
3560,983,859
3565,976,857
3570,961,852
3575,959,849
3580,947,845
3585,948,849
3590,932,853
3595,929,845
3600,917,846
3605,900,845
3610,888,841
3615,889,838
3620,869,830
3625,868,835
3630,861,831
3635,850,827
3640,843,830
3645,840,826
3650,816,818
3655,813,814
3660,819,811
3665,799,808
3670,802,802
3675,782,794
3680,784,789
3685,774,790
3690,764,782
3695,760,773
3700,763,767
3705,758,765
3710,751,757
3715,749,755
3720,751,748
3725,746,743
3730,741,731
3735,746,732
3740,753,720
3745,745,721
3750,750,709
3755,755,704
3760,763,701
3765,771,696
3770,761,689
3775,779,686
3780,781,677
3785,780,675
3790,795,671
3795,797,658
3800,813,661
3805,822,656
3810,837,656
3815,832,649
3820,846,641
3825,862,639
3830,879,640
3835,881,636
3840,892,634
3845,914,634
3850,921,636
3855,939,630
3860,951,631
3865,960,631
3870,977,636
3875,987,641
3880,989,637
3885,1000,643
3890,1019,645
3895,1037,649
3900,1035,651
3905,1054,651
3910,1067,662
3915,1070,667
3920,1077,668
3925,1099,680
3930,1114,686
3935,1114,693
3940,1115,694
3945,1130,702
3950,1130,711
3955,1137,719
3960,1144,728
3965,1155,738
3970,1162,748
3975,1159,750
3980,1169,762
3985,1169,767
3990,1176,769
3995,1181,783
4000,1177,789
4005,1176,789
4010,1188,810
4014,1189,811
4019,1180,820
4025,1189,829
4030,1184,838
4035,1184,846
4040,1187,848
4045,1190,856
4050,1186,865
4054,1185,877
4059,1177,880
4065,1169,878
4070,1167,885
4075,1168,890
4080,1168,899
4085,1158,899
4090,1168,908
4094,1145,910
4100,1154,914
4105,1144,916
4110,1150,919
4115,1148,914
4120,1144,919
4125,1141,918
4130,1134,924
4135,1123,923
4140,1121,919
4145,1131,924
4150,1123,920
4155,1123,923
4160,1114,928
4165,1112,920
4170,1111,919
4175,1115,928
4180,1108,921
4185,1105,918
4190,1095,909
4195,1100,909
4200,1098,914
4205,1094,909
4210,1087,905
4215,1087,900
4220,1086,901
4225,1080,904
4230,1085,900
4235,1081,896
4240,1072,888
4245,1074,893
4250,1067,888
4255,1071,887
4260,1078,885
4265,1063,882
4270,1049,879
4275,1060,884
4280,1050,879
4285,1050,873
4290,1044,873
4295,1033,871
4300,1046,868
4305,1030,869
4310,1015,869
4315,1010,859
4320,1001,866
4325,995,866
4330,999,864
4335,994,861
4340,992,861
4345,972,857
4350,963,856
4355,957,856
4360,948,855
4365,928,843
4370,936,853
4375,924,845
4380,916,845
4385,900,847
4390,895,839
4395,874,839
4400,878,834
4405,874,840
4410,867,831
4415,841,825
4420,843,825
4425,839,820
4430,828,817
4435,810,815
4440,800,814
4445,803,811
4450,792,798
4455,783,798
4460,787,788
4465,761,786
4470,780,779
4475,759,775
4480,760,775
4485,762,768
4490,748,760
4495,740,752
4500,756,748
4505,741,738
4510,748,737
4515,755,727
4520,750,719
4525,759,714
4530,761,712
4535,756,700
4540,762,693
4545,765,691
4550,777,689
4555,765,690
4560,774,678
4565,796,674
4570,791,670
4575,806,656
4580,811,656
4585,816,656
4590,831,652
4595,846,649
4600,850,643
4605,867,647
4610,878,641
4615,881,645
4620,899,638
4625,909,631
4630,922,631
4635,936,629
4640,940,634
4645,958,636
4650,972,639
4655,976,642
4660,990,645
4665,999,644
4670,1019,639
4675,1029,647
4680,1043,654
4685,1057,660
4690,1062,664
4695,1078,668
4700,1089,665
4705,1095,674
4710,1097,683
4715,1111,689
4720,1122,701
4725,1120,706
4730,1131,709
4735,1146,712
4740,1147,724
4745,1161,729
4750,1161,737
4755,1168,747
4760,1174,760
4765,1177,765
4770,1175,775
4775,1182,775
4780,1182,790
4785,1188,797
4790,1191,806
4795,1208,818
4800,1195,821
4805,1189,829
4810,1189,838
4815,1186,847
4820,1188,853
4825,1188,862
4830,1176,863
4835,1189,875
4840,1174,877
4845,1177,881
4850,1179,887
4855,1177,892
4860,1164,890
4865,1168,902
4870,1166,909
4875,1151,907
4880,1151,908
4885,1159,916
4890,1148,917
4895,1147,918
4900,1140,923
4905,1129,920
4910,1137,927
4915,1134,923
4920,1119,922
4925,1123,917
4930,1117,927
4935,1118,927
4940,1115,922
4945,1117,925
4950,1108,922
4955,1111,919
4960,1104,920
4965,1092,914
4970,1102,913
4975,1087,913
4980,1093,909
4985,1090,913
4990,1090,907
4995,1095,910
5000,1090,902
5005,1085,902
5010,1077,895
5015,1076,892
5020,1076,891
5025,1079,892
5030,1079,893
5035,1076,886
5040,1070,884
5045,1065,887
5050,1059,882
5055,1052,876
5060,1053,881
5065,1040,872
5070,1036,876
5075,1041,866
5080,1034,869
5085,1031,870
5090,1023,861
5095,1024,869
5100,1015,865
5105,998,865
5110,982,858
5115,983,861
5120,986,854
5125,970,854
5130,958,856
5135,959,852
5140,942,850
5145,945,851
5150,934,846
5155,918,847
5160,913,845
5165,907,844
5170,896,840
5175,888,839
5180,875,831
5185,861,829
5190,858,830
5195,850,824
5200,840,827
5205,833,818
5210,824,819
5215,818,816
5220,800,807
5225,803,805
5230,790,801
5235,785,791
5240,786,790
5245,781,785
5250,767,774
5255,768,773
5260,760,771
5265,759,766
5270,754,757
5275,750,749
5280,745,746
5285,751,739
5290,742,738
5295,753,733
5300,753,727
5305,757,720
5310,745,713
5315,755,706
5320,767,707
5325,767,688
5330,771,694
5335,772,680
5340,782,680
5345,789,672
5350,793,665
5355,795,663
5360,808,660
5365,815,651
5370,827,652
5375,833,644
5380,860,638
5385,859,640
5390,878,643
5395,887,634
5400,894,632
5405,910,627
5410,918,638
5415,934,633
5420,945,637
5425,956,633
5430,969,635
5435,985,640
5440,990,640
5445,1003,635
5450,1013,642
5455,1026,652
5460,1053,654
5465,1053,656
5470,1068,667
5475,1062,657
5480,1084,672
5485,1096,673
5490,1114,680
5495,1113,692
5500,1117,696
5505,1134,703
5510,1136,714
5515,1139,719
5520,1143,723
5525,1155,734
5530,1164,746
5535,1164,748
5540,1171,754
5545,1173,766
5550,1177,769
5555,1181,786
5560,1188,790
5565,1188,795
5570,1181,805
5575,1184,815
5580,1180,821
5585,1190,827
5590,1194,836
5595,1191,840
5600,1191,846
5605,1179,859
5610,1178,859
5615,1173,868
5620,1179,874
5625,1178,882
5630,1174,887
5635,1177,897
5640,1173,893
5645,1171,902
5650,1159,903
5655,1146,910
5660,1154,913
5665,1150,912
5670,1147,912
5675,1132,917
5680,1144,916
5685,1136,926
5690,1133,922
5695,1130,924
5700,1123,921
5705,1121,920
5710,1125,921
5715,1111,924
5720,1111,926
5725,1116,919
5730,1113,927
5735,1102,919
5740,1108,920
5745,1097,917
5750,1098,910
5755,1097,915
5760,1099,910
5765,1094,906
5770,1090,907
5775,1088,902
5780,1090,900
5785,1092,901
5790,1080,896
5795,1081,891
5800,1075,889
5805,1076,891
5810,1074,888
5815,1068,887
5820,1053,888
5825,1067,877
5830,1056,877
5835,1052,876
5840,1050,876
5845,1054,880
5850,1042,867
5855,1040,871
5860,1034,868
5865,1025,869
5870,1029,864
5875,1012,870
5880,1008,865
5885,1011,862
5890,998,861
5895,990,864
5900,985,859
5905,981,857
5910,965,852
5915,961,860
5920,935,850
5925,944,853
5930,921,844
5935,912,850
5940,919,846
5945,901,842
5950,906,845
5955,889,840
5960,879,841
5965,877,838
5970,858,836
5975,851,826
5980,854,825
5985,837,824
5990,822,821
5995,828,810
6000,801,805
6005,801,802
6010,790,804
6015,786,793
6020,788,793
6025,773,791
6030,769,784
6035,764,776
6040,759,774
6045,760,766
6050,748,761
6055,748,750
6060,752,746
6065,744,744
6070,748,731
6075,750,726
6080,747,727
6085,751,721
6090,748,716
6095,739,707
6100,760,703
6105,761,692
6110,772,690
6115,780,683
6120,781,676
6125,780,674
6130,787,669
6135,802,662
6140,809,653
6145,820,649
6150,824,655
6155,849,650
6160,851,648
6165,864,646
6170,881,636
6175,881,638
6180,893,631
6185,911,639
6190,921,635
6195,931,636
6200,943,635
6205,960,635
6210,972,635
6215,968,637
6220,987,647
6225,1004,641
6230,1022,647
6235,1033,643
6240,1032,649
6245,1051,658
6250,1065,663
6255,1079,666
6260,1080,677
6265,1095,679
6270,1103,678
6275,1110,685
6280,1126,695
6285,1130,698
6290,1138,710
6295,1143,720
6300,1158,728
6305,1159,728
6310,1167,741
6315,1171,746
6320,1169,756
6325,1167,762
6330,1176,770
6335,1184,782
6340,1183,787
6345,1182,794
6350,1183,803
6355,1180,817
6360,1193,822
6365,1188,832
6370,1197,840
6375,1189,843
6380,1192,854
6385,1180,857
6390,1193,868
6395,1185,874
6400,1169,876
6405,1183,882
6410,1171,887
6415,1167,894
6420,1157,896
6425,1164,900
6430,1159,904
6435,1164,905
6440,1160,912
6445,1147,915
6450,1151,915
6455,1140,921
6460,1135,924
6465,1134,923
6470,1137,919
6475,1122,925
6480,1126,923
6485,1134,923
6490,1116,925
6495,1122,922
6500,1119,923
6505,1116,922
6510,1110,921
6515,1101,917
6520,1107,919
6525,1099,918
6530,1103,915
6535,1107,910
6540,1100,909
6545,1092,904
6550,1093,907
6555,1081,905
6560,1082,902
6565,1092,908
6570,1081,902
6575,1084,898
6580,1080,895
6585,1069,889
6590,1069,888
6595,1074,885
6600,1071,883
6605,1068,882
6610,1063,884
6615,1057,879
6620,1052,874
6625,1053,880
6630,1048,872
6635,1031,870
6640,1028,871
6645,1027,866
6650,1016,868
6655,1022,867
6660,1007,875
6665,1001,861
6670,991,863
6675,987,858
6680,984,859
6685,984,858
6690,958,861
6695,963,854
6700,954,853
6705,944,850
6710,932,845
6715,918,846
6720,923,841
6725,913,849
6730,903,836
6735,886,837
6740,879,835
6745,869,832
6750,856,830
6755,858,833
6760,837,821
6765,838,819
6770,828,815
6775,811,815
6780,807,810
6785,797,803
6790,794,802
6795,789,793
6800,775,794
6805,772,786
6810,777,777
6815,768,774
6820,762,773
6825,754,767
6830,751,759
6835,748,752
6840,749,745
6845,747,742
6850,746,736
6855,754,725
6860,740,724
6865,754,720
6870,751,711
6875,754,704
6880,758,699
6885,757,690
6890,765,685
6895,769,684
6900,780,679
6905,784,675
6910,788,667
6915,803,667
6920,814,658
6925,826,657
6930,828,657
6935,834,646
6940,855,641
6945,860,637
6950,869,636
6955,885,642
6960,891,636
6965,906,635
6970,910,635
6975,924,634
6980,945,635
6985,961,633
6990,966,639
6995,979,634
7000,991,639
7005,1012,645
7010,1019,646
7015,1029,645
7020,1043,658
7025,1059,659
7030,1062,662
7035,1062,666
7040,1078,671
7045,1103,681
7050,1101,680
7055,1122,687
7060,1117,695
7065,1126,707
7070,1139,708
7075,1132,719
7080,1149,720
7085,1161,731
7090,1161,742
7095,1158,753
7100,1164,753
7105,1178,764
7110,1186,774
7115,1186,783
7120,1185,788
7125,1199,796
7130,1183,808
7135,1192,808
7140,1190,820
7145,1192,826
7150,1178,831
7155,1190,842
7160,1189,848
7165,1178,860
7170,1180,858
7175,1185,871
7180,1174,877
7185,1163,878
7190,1178,882
7195,1164,891
7200,1167,894
7205,1155,898
7210,1156,901
7215,1158,913
7220,1150,905
7225,1137,915
7230,1151,913
7235,1147,917
7240,1139,918
7245,1131,923
7250,1130,925
7255,1137,921
7260,1132,918
7265,1135,925
7270,1126,923
7275,1124,922
7280,1116,926
7285,1119,916
7290,1124,925
7295,1108,920
7300,1111,918
7305,1100,919
7310,1110,912
7315,1098,918
7320,1092,911
7325,1097,908
7330,1090,915
7335,1095,903
7340,1099,901
7345,1089,896
7350,1082,903
7355,1079,892
7360,1077,893
7365,1072,883
7370,1077,887
7375,1073,888
7380,1057,883
7385,1064,882
7390,1052,877
7395,1054,884
7400,1049,877
7405,1043,879
7410,1046,874
7415,1035,870
7420,1033,871
7425,1027,867
7430,1030,865
7435,1016,864
7440,1018,863
7445,1005,858
7450,997,861
7455,991,855
7460,973,861
7465,982,862
7470,958,860
7475,967,860
7480,944,850
7485,937,848
7490,931,852
7495,928,850
7500,915,843
7505,916,840
7510,893,842
7515,883,841
7520,876,838
7525,863,836
7530,869,831
7535,844,828
7540,838,822
7545,822,825
7550,823,819
7555,820,812
7560,801,814
7565,796,802
7570,794,799
7575,785,798
7580,787,795
7585,783,786
7590,769,784
7595,768,775
7600,765,767
7605,751,768
7610,753,762
7615,762,755
7620,756,739
7625,737,738
7630,747,737
7635,749,733
7640,747,723
7645,755,716
7650,756,716
7655,751,707
7660,759,697
7665,763,693
7670,763,691
7675,773,688
7680,783,676
7685,788,668
7690,793,668
7695,810,657
7700,812,656
7705,821,657
7710,828,645
7715,831,650
7720,851,644
7725,859,646
7730,869,641
7735,891,638
7740,886,636
7745,913,639
7750,917,636
7755,934,633
7760,948,632
7765,949,630
7770,973,638
7775,981,637
7780,988,639
7785,1006,643
7790,1020,642
7795,1023,647
7800,1043,656
7805,1057,655
7810,1069,665
7815,1074,666
7820,1076,671
7825,1089,679
7830,1098,676
7835,1119,688
7840,1120,696
7845,1139,705
7850,1128,707
7855,1148,718
7860,1151,725
7865,1150,731
7870,1159,737
7875,1170,746
7880,1173,756
7885,1175,759
7890,1165,773
7895,1178,778
7900,1184,789
7905,1176,794
7910,1187,806
7915,1187,816
7920,1186,822
7925,1189,828
7930,1180,834
7935,1191,840
7940,1196,851
7945,1183,855
7950,1180,862
7955,1181,867
7960,1175,876
7965,1180,876
7970,1170,886
7975,1171,892
7980,1171,892
7985,1162,896
7990,1155,899
7995,1146,904
8000,1148,909
8005,1147,917
8010,1147,922
8015,1143,918
8020,1149,915
8025,1140,920
8029,1137,919
8035,1128,923
8039,1112,926
8045,1121,919
8050,1119,925
8055,1111,925
8060,1116,922
8064,1109,921
8070,1117,923
8074,1107,921
8080,1111,917
8085,1107,915
8090,1100,912
8095,1097,909
8100,1103,914
8105,1093,911
8109,1088,904
8115,1087,904
8119,1079,901
8125,1091,903
8130,1080,895
8135,1085,890
8140,1075,893
8145,1078,895
8150,1072,886
8154,1071,891
8160,1059,883
8164,1071,881
8170,1054,883
8175,1055,882
8180,1056,874
8185,1052,875
8189,1051,874
8195,1036,876
8200,1036,873
8205,1032,864
8210,1015,867
8215,1015,863
8220,1007,867
8225,999,861
8230,1000,862
8235,987,861
8240,985,860
8245,978,861
8250,974,856
8255,957,853
8260,948,855
8265,937,850
8270,925,852
8275,924,849
8280,912,843
8285,905,840
8290,900,841
8295,895,836
8300,880,837
8305,873,829
8310,858,834
8315,849,827
8320,839,821
8325,829,822
8330,826,816
8335,821,817
8340,815,812
8345,797,805
8350,792,804
8355,785,798
8360,776,797
8365,775,783
8370,769,787
8375,760,778
8380,762,776
8385,760,768
8390,755,759
8395,751,753
8400,760,752
8405,739,745
8410,748,734
8415,748,730
8420,753,721
8425,753,716
8430,746,716
8435,751,706
8440,761,702
8445,766,699
8450,770,688
8455,771,690
8460,772,674
8465,778,676
8470,790,664
8475,807,662
8480,807,658
8485,826,663
8490,831,650
8495,833,644
8500,845,639
8505,860,644
8510,867,640
8515,877,642
8520,898,635
8525,912,637
8530,925,630
8535,922,634
8540,951,635
8545,956,637
8550,967,635
8555,992,639
8560,999,640
8565,1010,638
8570,1018,645
8575,1031,646
8580,1034,648
8585,1061,654
8590,1069,663
8595,1074,675
8600,1083,674
8605,1089,680
8610,1108,687
8615,1111,687
8620,1125,693
8625,1121,699
8630,1128,707
8635,1149,724
8640,1153,725
8645,1164,731
8650,1163,745
8655,1177,747
8660,1167,756
8665,1171,766
8670,1182,771
8675,1184,784
8680,1176,794
8685,1191,797
8690,1188,803
8695,1187,809
8700,1191,819
8705,1189,827
8710,1187,836
8715,1194,846
8720,1189,848
8725,1184,854
8730,1185,861
8735,1185,866
8740,1177,878
8745,1172,880
8750,1177,881
8755,1169,895
8760,1164,898
8765,1171,899
8770,1160,906
8775,1153,911
8780,1153,916
8785,1146,910
8790,1140,913
8795,1141,918
8800,1138,917
8805,1137,922
8810,1126,919
8815,1135,926
8820,1131,921
8825,1121,915
8830,1124,927
8835,1120,925
8840,1121,926
8845,1108,924
8850,1101,919
8855,1106,919
8860,1102,917
8865,1097,918
8870,1098,910
8875,1100,915
8880,1093,911
8885,1085,911
8890,1095,909
8895,1085,902
8900,1088,900
8905,1081,898
8910,1083,899
8915,1088,900
8920,1078,893
8925,1076,891
8930,1075,890
8935,1070,887
8940,1065,883
8945,1061,884
8950,1063,880
8955,1057,879
8960,1051,877
8965,1049,874
8970,1052,875
8975,1038,865
8980,1028,868
8985,1030,867
8990,1014,872
8995,1015,864
9000,1012,863
9005,1005,860
9010,995,862
9015,979,860
9020,986,859
9025,977,862
9030,961,856
9035,959,853
9040,947,855
9045,939,853
9050,934,851
9055,921,849
9060,921,846
9065,899,848
9070,894,840
9075,890,835
9080,874,833
9085,869,829
9090,854,831
9095,844,828
9100,841,827
9105,829,825
9110,817,824
9115,816,817
9120,813,806
9125,795,805
9130,793,800
9135,791,800
9140,790,792
9145,776,787
9150,773,782
9155,763,774
9160,764,775
9165,763,765
9170,754,763
9175,767,758
9180,753,749
9185,750,744
9190,765,732
9195,744,728
9200,749,724
9205,747,722
9210,753,715
9215,757,710
9220,753,701
9225,761,688
9230,769,693
9235,775,681
9240,787,678
9245,790,672
9250,801,665
9255,800,661
9260,809,661
9265,814,658
9270,824,653
9275,842,647
9280,846,648
9285,853,645
9290,876,639
9295,882,635
9300,911,634
9305,910,633
9310,918,638
9315,925,638
9320,942,634
9325,961,634
9330,974,633
9335,989,637
9340,994,647
9345,1001,642
9350,1021,649
9355,1028,647
9360,1044,650
9365,1056,657
9370,1062,660
9375,1072,667
9380,1087,674
9385,1102,675
9390,1110,677
9395,1110,690
9400,1122,695
9405,1129,704
9410,1139,710
9415,1141,716
9420,1156,727
9425,1160,730
9430,1164,741
9435,1162,747
9440,1164,756
9445,1169,761
9450,1175,775
9455,1188,777
9460,1182,794
9465,1189,799
9470,1189,815
9475,1184,814
9480,1192,825
9485,1183,827
9490,1178,835
9495,1187,837
9500,1187,852
9505,1193,854
9510,1170,865
9515,1184,875
9520,1183,871
9525,1184,876
9530,1179,884
9535,1169,891
9540,1162,894
9545,1161,897
9550,1167,907
9555,1167,913
9560,1154,913
9565,1153,912
9570,1145,913
9575,1154,921
9580,1136,918
9585,1133,920
9590,1138,920
9595,1132,924
9600,1123,924
9605,1125,921
9610,1125,924
9615,1118,924
9620,1114,925
9625,1112,923
9630,1109,918
9635,1114,923
9640,1108,920
9645,1098,916
9650,1099,908
9655,1104,910
9660,1099,912
9665,1091,910
9670,1088,910
9675,1099,903
9680,1080,905
9685,1085,903
9690,1084,898
9695,1072,897
9700,1087,891
9705,1081,890
9710,1074,887
9715,1070,886
9720,1068,884
9725,1060,885
9730,1066,884
9735,1057,875
9740,1047,876
9745,1043,877
9750,1042,885
9755,1037,875
9760,1038,870
9765,1031,871
9770,1026,866
9775,1022,867
9780,1016,866
9785,1006,859
9790,990,865
9795,983,865
9800,975,859
9805,975,857
9810,964,861
9815,963,859
9820,948,852
9825,942,853
9830,936,850
9835,921,843
9840,909,849
9845,900,843
9850,900,842
9855,880,837
9860,867,838
9865,862,837
9870,862,829
9875,848,830
9880,842,821
9885,835,821
9890,823,821
9895,821,806
9900,798,813
9905,791,802
9910,798,802
9915,790,793
9920,785,790
9925,764,785
9930,769,779
9935,769,778
9940,763,771
9945,753,767
9950,750,760
9955,746,757
9960,748,753
9965,741,737
9970,736,736
9975,753,732
9980,746,721
9985,744,723
9990,759,716
9995,761,706
10000,768,700
10005,767,697
10010,764,684
10015,775,680
10020,781,681
10025,790,678
10030,794,677
10035,805,661
10040,809,656
10045,819,654
10050,825,658
10055,846,647
10060,855,651
10065,864,640
10070,871,637
10075,884,639
10080,895,637
10085,909,632
10090,926,630
10095,934,638
10100,941,637
10105,960,635
10110,988,642
10115,986,639
10120,991,641
10125,1017,641
10130,1009,645
10135,1026,650
10140,1035,647
10145,1050,661
10150,1061,655
10155,1068,664
10160,1091,668
10165,1097,681
10170,1099,682
10175,1114,688
10180,1117,696
10185,1133,702
10190,1134,709
10195,1138,719
10200,1156,721
10205,1159,728
10210,1166,736
10215,1162,748
10220,1180,760
10225,1171,771
10230,1185,773
10235,1175,774
10240,1182,785
10245,1187,797
10250,1188,802
10255,1192,816
10260,1186,827
10265,1194,833
10270,1187,832
10275,1193,840
10280,1180,847
10285,1179,855
10290,1177,865
10295,1180,870
10300,1183,875
10305,1171,875
10310,1176,885
10315,1170,887
10320,1164,897
10325,1160,903
10330,1165,902
10335,1150,908
10340,1163,912
10345,1152,912
10350,1152,920
10355,1149,923
10360,1135,918
10365,1135,922
10370,1131,927
10375,1128,923
10380,1134,923
10385,1124,923
10390,1125,924
10395,1120,930
10400,1113,922
10405,1109,920
10410,1112,918
10415,1110,908
10420,1102,914
10425,1095,916
10430,1098,921
10435,1096,908
10440,1097,910
10445,1093,912
10450,1098,908
10455,1089,905
10460,1091,905
10465,1085,898
10470,1084,893
10475,1074,895
10480,1076,895
10485,1081,889
10490,1064,892
10495,1060,885
10500,1059,885
10505,1059,879
10510,1065,881
10515,1068,880
10520,1056,878
10525,1047,876
10530,1051,872
10535,1034,873
10540,1029,869
10545,1031,874
10550,1030,867
10555,1013,870
10560,1019,870
10565,1003,858
10570,999,860
10575,982,863
10580,987,860
10585,978,857
10590,969,854
10595,951,850
10600,949,853
10605,938,851
10610,924,847
10615,928,844
10620,917,845
10625,902,845
10630,897,842
10635,892,835
10640,875,838
10645,867,829
10650,857,837
10655,856,827
10660,836,828
10665,827,822
10670,819,816
10675,823,819
10680,813,813
10685,803,805
10690,797,800
10695,790,796
10700,778,790
10705,781,788
10710,771,785
10715,769,780
10720,763,765
10725,751,763
10730,750,757
10735,756,761
10740,744,753
10745,758,740
10750,746,736
10755,743,732
10760,750,721
10765,745,719
10770,748,709
10775,756,707
10780,755,700
10785,769,696
10790,769,689
10795,775,678
10800,773,675
10805,778,674
10810,800,666
10815,800,665
10820,805,660
10825,822,658
10830,837,651
10835,834,654
10840,842,643
10845,857,642
10850,866,641
10855,891,642
10860,897,635
10865,902,642
10870,916,634
10875,940,632
10880,951,633
10885,955,637
10890,965,632
10895,973,632
10900,991,639
10905,1007,646
10910,1021,646
10915,1027,651
10920,1049,653
10925,1060,655
10930,1073,659
10935,1069,665
10940,1083,673
10945,1096,671
10950,1106,683
10955,1113,693
10960,1114,695
10965,1123,704
10970,1146,715
10975,1145,714
10980,1150,721
10985,1147,735
10990,1157,742
10995,1169,745
11000,1177,763
11005,1162,768
11010,1176,772
11015,1171,781
11020,1185,789
11025,1184,797
11030,1181,805
11035,1180,812
11040,1181,819
11045,1200,823
11050,1188,833
11055,1185,842
11060,1190,851
11065,1182,856
11070,1183,868
11075,1182,865
11080,1182,878
11085,1174,879
11090,1176,890
11095,1162,891
11100,1163,896
11105,1166,897
11110,1166,901
11115,1155,905
11120,1137,915
11125,1148,912
11130,1157,912
11135,1154,918
11140,1141,915
11145,1133,927
11150,1137,922
11155,1130,920
11160,1129,927
11165,1132,925
11170,1126,927
11175,1111,924
11180,1112,922
11185,1116,920
11190,1110,924
11195,1103,918
11200,1118,927
11205,1100,916
11210,1098,916
11215,1102,908
11220,1098,914
11225,1092,919
11230,1080,904
11235,1091,911
11240,1092,902
11245,1078,904
11250,1092,902
11255,1087,901
11260,1077,891
11265,1073,891
11270,1076,894
11275,1064,886
11280,1065,883
11285,1062,882
11290,1051,881
11295,1059,883
11300,1055,873
11305,1045,870
11310,1042,871
11315,1042,865
11320,1033,874
11325,1025,867
11330,1019,866
11335,1019,867
11340,1009,869
11345,997,866
11350,999,857
11355,985,856
11360,996,858
11365,972,858
11370,962,853
11375,951,856
11380,949,853
11385,941,854
11390,927,848
11395,932,841
11400,916,843
11405,909,843
11410,900,837
11415,887,835
11420,871,842
11425,867,831
11430,861,833
11435,852,832
11440,840,826
11445,837,821
11450,828,814
11455,808,815
11460,805,807
11465,796,804
11470,793,806
11475,796,796
11480,781,792
11485,780,787
11490,766,782
11495,761,777
11500,758,767
11505,750,770
11510,751,761
11515,749,758
11520,748,748
11525,747,744
11530,752,733
11535,757,733
11540,741,730
11545,749,722
11550,747,713
11555,747,706
11560,750,700
11565,762,695
11570,773,683
11575,775,685
11580,779,676
11585,792,678
11590,792,666
11595,807,661
11600,796,657
11605,818,657
11610,832,652
11615,838,649
11620,853,644
11625,860,640
11630,869,641
11635,887,639
11640,894,638
11645,910,638
11650,915,634
11655,935,637
11660,943,638
11665,961,631
11670,966,639
11675,979,644
11680,992,640
11685,1008,646
11690,1016,644
11695,1028,641
11700,1048,654
11705,1050,656
11710,1055,665
11715,1079,663
11720,1084,670
11725,1092,681
11730,1100,678
11735,1115,686
11740,1122,693
11745,1128,704
11750,1137,707
11755,1145,714
11760,1151,726
11765,1156,732
11770,1160,741
11775,1171,754
11780,1168,759
11785,1183,763
11790,1175,770
11795,1183,777
11800,1185,793
11805,1187,797
11810,1189,804
11815,1189,816
11820,1191,822
11825,1190,838
11830,1184,833
11835,1179,843
11840,1189,850
11845,1193,857
11850,1178,861
11855,1169,873
11860,1172,877
11865,1174,881
11870,1177,885
11875,1167,886
11880,1160,890
11885,1163,898
11890,1157,908
11895,1155,910
11900,1155,913
11905,1139,913
11910,1153,919
11915,1147,916
11920,1130,920
11925,1143,926
11930,1124,923
11935,1131,927
11940,1131,919
11945,1121,922
11950,1124,922
11955,1121,926
11960,1124,926
11965,1115,919
11970,1109,920
11975,1106,912
11980,1108,922
11985,1098,914
11990,1102,915
11995,1101,911
12000,1092,910
12005,1107,913
12010,1088,912
12015,1088,905
12020,1097,902
12025,1090,901
12030,1085,900
12035,1081,897
12040,1073,895
12045,1086,894
12050,1079,887
12055,1077,889
12060,1068,885
12065,1060,886
12070,1063,882
12075,1052,881
12080,1060,878
12085,1048,884
12090,1051,881
12095,1046,865
12100,1031,871
12105,1033,871
12110,1023,868
12115,1024,863
12120,1004,863
12125,1005,858
12130,995,862
12135,993,858
12140,992,857
12145,972,860
12150,972,856
12155,961,857
12160,951,852
12165,943,851
12170,928,852
12175,924,849
12180,913,844
12185,909,844
12190,900,840
12195,881,836
12200,877,834
12205,871,827
12210,853,830
12215,855,824
12220,840,824
12225,832,823
12230,826,818
12235,817,810
12240,811,807
12245,798,806
12250,789,796
12255,784,800
12260,777,795
12265,774,788
12270,771,788
12275,764,777
12280,756,769
12285,747,766
12290,753,757
12295,753,755
12300,744,746
12305,744,741
12310,751,734
12315,747,732
12320,751,729
12325,758,717
12330,757,711
12335,756,706
12340,758,701
12345,763,694
12350,764,686
12355,769,684
12360,774,680
12365,785,672
12370,798,666
12375,793,661
12380,813,659
12385,821,652
12390,824,648
12395,844,645
12400,841,645
12405,852,645
12410,869,640
12415,876,631
12420,895,635
12425,899,638
12430,915,633
12435,931,632
12440,949,635
12445,950,632
12450,978,634
12455,982,640
12460,988,644
12465,1007,641
12470,1020,644
12475,1036,647
12480,1039,654
12485,1049,659
12490,1058,661
12495,1071,667
12500,1075,671
12505,1099,677
12510,1099,680
12515,1113,692
12520,1121,695
12525,1128,711
12530,1134,714
12535,1142,718
12540,1148,723
12545,1152,732
12550,1162,745
12555,1168,747
12560,1171,756
12565,1165,771
12570,1173,775
12575,1183,786
12580,1188,788
12585,1184,803
12590,1191,803
12595,1191,814
12600,1185,823
12605,1183,832
12610,1188,837
12615,1186,837
12620,1186,852
12625,1180,860
12630,1177,863
12635,1178,871
12640,1170,875
12645,1178,879
12650,1171,889
12655,1171,889
12660,1169,892
12665,1167,907
12670,1152,902
12675,1161,908
12680,1150,908
12685,1150,912
12690,1151,911
12695,1140,921
12700,1141,915
12705,1141,922
12710,1126,925
12715,1125,922
12720,1115,922
12725,1122,924
12730,1124,924
12735,1111,928
12740,1124,922
12745,1113,926
12750,1102,920
12755,1094,918
12760,1108,914
12765,1107,918
12770,1102,913
12775,1106,920
12780,1096,912
12785,1090,910
12790,1091,911
12795,1095,909
12800,1098,896
12805,1091,898
12810,1084,899
12815,1083,898
12820,1081,898
12825,1080,891
12830,1073,888
12835,1076,888
12840,1062,890
12845,1057,883
12850,1055,882
12855,1057,877
12860,1055,876
12865,1046,872
12870,1048,872
12875,1038,869
12880,1034,866
12885,1030,867
12890,1025,869
12895,1019,864
12900,998,864
12905,1005,868
12910,1003,861
12915,993,862
12920,987,863
12925,969,854
12930,967,853
12935,962,858
12940,948,847
12945,944,851
12950,937,850
12955,922,848
12960,909,845
12965,909,842
12970,908,842
12975,897,840
12980,886,832
12985,874,830
12990,870,831
12995,852,825
13000,839,829
13005,829,820
13010,829,820
13015,804,813
13020,804,807
13025,796,802
13030,788,800
13035,790,796
13040,782,795
13045,771,783
13050,774,782
13055,766,778
13060,764,770
13065,764,766
13070,750,764
13075,743,756
13080,743,752
13085,756,741
13090,748,737
13095,742,731
13100,751,726
13105,747,723
13110,749,710
13115,746,710
13120,761,696
13125,766,691
13130,772,687
13135,774,682
13140,770,678
13145,797,675
13150,783,665
13155,803,665
13160,814,662
13165,816,657
13170,827,648
13175,839,652
13180,854,645
13185,859,641
13190,871,641
13195,879,633
13200,894,632
13205,908,629
13210,918,636
13215,936,635
13220,952,632
13225,951,635
13230,962,636
13235,980,634
13240,1000,639
13245,997,638
13250,1014,639
13255,1029,649
13260,1037,649
13265,1052,653
13270,1056,660
13275,1078,666
13280,1082,669
13285,1096,683
13290,1110,682
13295,1125,691
13300,1126,697
13305,1132,705
13310,1133,707
13315,1141,713
13320,1148,725
13325,1153,728
13330,1160,742
13335,1163,748
13340,1176,752
13345,1177,771
13350,1169,777
13355,1185,773
13360,1175,789
13365,1192,798
13370,1184,806
13375,1188,811
13380,1180,826
13385,1180,827
13390,1191,831
13395,1181,836
13400,1183,850
13405,1187,854
13410,1190,865
13415,1180,864
13420,1185,871
13425,1172,881
13430,1176,884
13435,1175,889
13440,1178,898
13445,1165,909
13450,1170,900
13455,1156,909
13460,1150,910
13465,1151,916
13470,1152,918
13475,1149,924
13480,1129,919
13485,1138,917
13490,1138,922
13495,1131,922
13500,1128,924
13505,1125,925
13510,1118,924
13515,1118,922
13520,1109,922
13525,1122,923
13530,1111,926
13535,1111,929
13540,1107,919
13545,1109,914
13550,1107,918
13555,1100,914
13560,1089,907
13565,1094,907
13570,1088,908
13575,1088,900
13580,1086,899
13585,1085,897
13590,1083,896
13595,1085,896
13600,1074,892
13605,1080,894
13610,1072,891
13615,1064,883
13620,1073,887
13625,1066,884
13630,1065,882
13635,1048,881
13640,1046,879
13645,1050,875
13650,1043,873
13655,1042,872
13660,1028,873
13665,1027,867
13670,1022,869
13675,1010,870
13680,1008,865
13685,1008,869
13690,1005,863
13695,991,855
13700,979,853
13705,973,856
13710,968,852
13715,961,856
13720,939,851
13725,934,846
13730,929,853
13735,926,844
13740,918,850
13745,900,851
13750,892,834
13755,896,844
13760,870,834
13765,873,834
13770,857,831
13775,847,828
13780,845,822
13785,835,816
13790,825,819
13795,809,814
13800,805,809
13805,807,809
13810,804,802
13815,789,798
13820,783,792
13825,775,789
13830,766,786
13835,758,777
13840,767,779
13845,754,767
13850,755,761
13855,752,758
13860,752,747
13865,740,738
13870,753,733
13875,747,733
13880,750,724
13885,747,727
13890,748,709
13895,749,713
13900,756,698
13905,768,705
13910,770,687
13915,771,686
13920,780,680
13925,788,670
13930,800,672
13935,799,665
13940,814,660
13945,821,655
13950,831,654
13955,842,651
13960,844,644
13965,863,645
13970,871,638
13975,889,637
13980,885,638
13985,906,644
13990,908,637
13995,928,640
14000,946,636
14005,960,641
14010,973,635
14015,984,639
14020,997,633
14025,996,642
14030,1017,646
14035,1024,644
14040,1038,654
14045,1050,658
14050,1065,661
14055,1072,667
14060,1088,669
14065,1089,672
14070,1101,679
14075,1107,689
14080,1123,698
14085,1127,701
14090,1124,713
14095,1142,719
14100,1149,729
14105,1160,733
14110,1159,738
14115,1169,741
14120,1174,755
14125,1173,769
14130,1185,773
14135,1187,779
14140,1183,792
14145,1184,799
14150,1187,806
14155,1189,817
14160,1193,819
14165,1183,822
14170,1189,831
14175,1192,844
14180,1177,847
14185,1188,861
14190,1192,860
14195,1184,872
14200,1175,871
14205,1179,883
14210,1179,886
14215,1172,898
14220,1167,898
14225,1159,895
14230,1162,910
14235,1164,907
14240,1148,913
14245,1151,910
14250,1152,916
14255,1144,916
14260,1133,916
14265,1130,916
14270,1132,919
14275,1135,926
14280,1138,928
14285,1117,922
14290,1122,920
14295,1107,927
14300,1126,925
14305,1108,923
14310,1108,924
14315,1109,922
14320,1099,921
14325,1105,913
14330,1105,915
14335,1099,915
14340,1102,913
14345,1094,912
14350,1091,911
14355,1088,909
14360,1089,903
14365,1089,901
14370,1088,898
14375,1083,898
14380,1076,895
14385,1076,889
14390,1073,890
14395,1065,882
14400,1063,881
14405,1069,886
14410,1058,880
14415,1064,877
14420,1047,880
14425,1053,877
14430,1049,875
14435,1037,877
14440,1035,872
14445,1026,864
14450,1022,865
14455,1022,862
14460,1004,859
14465,1003,865
14470,994,864
14475,988,860
14480,987,857
14485,974,855
14490,975,854
14495,951,853
14500,956,853
14505,939,851
14510,933,848
14515,916,848
14520,919,844
14525,913,841
14530,890,842
14535,891,842
14540,875,833
14545,873,837
14550,854,832
14555,856,831
14560,847,829
14565,816,824
14570,825,818
14575,816,812
14580,822,812
14585,808,809
14590,798,807
14595,787,791
14600,782,793
14605,779,790
14610,766,784
14615,776,773
14620,760,774
14625,743,766
14630,756,764
14635,753,754
14640,737,748
14645,745,749
14650,732,738
14655,750,736
14660,751,729
14665,741,723
14670,754,715
14675,753,704
14680,768,702
14685,762,697
14690,761,689
14695,775,683
14700,783,676
14705,789,668
14710,786,664
14715,806,661
14720,810,662
14725,808,661
14730,828,655
14735,830,644
14740,845,639
14745,862,640
14750,863,639
14755,887,635
14760,900,632
14765,910,634
14770,916,639
14775,934,635
14780,948,638
14785,969,636
14790,968,636
14795,984,635
14800,996,640
14805,1009,639
14810,1014,642
14815,1028,648
14820,1051,652
14825,1052,655
14830,1060,661
14835,1067,666
14840,1080,673
14845,1091,679
14850,1098,683
14855,1110,693
14860,1113,695
14865,1126,699
14870,1133,711
14875,1144,720
14880,1145,730
14885,1154,732
14890,1168,744
14895,1170,745
14900,1171,756
14905,1175,766
14910,1175,777
14915,1174,779
14920,1189,786
14925,1183,798
14930,1191,799
14935,1183,815
14940,1191,821
14945,1183,825
14950,1188,837
14955,1186,843
14960,1178,846
14965,1181,859
14970,1181,866
14975,1180,873
14980,1175,879
14985,1181,882
14990,1173,885
14995,1177,892
15000,1167,900
15005,1164,901
15010,1169,903
15015,1159,907
15020,1155,913
15025,1146,915
15030,1145,915
15035,1149,917
15040,1150,918
15045,1137,916
15050,1127,924
15055,1132,919
15060,1128,922
15065,1122,921
15070,1114,922
15075,1126,928
15080,1114,921
15085,1113,921
15090,1112,923
15095,1100,924
15100,1105,920
15105,1100,912
15110,1106,911
15115,1091,911
15120,1091,914
15125,1094,909
15130,1097,903
15135,1084,897
15140,1088,902
15145,1078,898
15150,1082,898
15155,1078,895
15160,1081,894
15165,1069,888
15170,1070,891
15175,1073,885
15180,1069,889
15185,1057,884
15190,1072,883
15195,1056,878
15200,1048,880
15205,1047,880
15210,1048,881
15215,1033,869
15220,1042,870
15225,1029,864
15230,1013,863
15235,1007,867
15240,1015,862
15245,1002,863
15250,1000,860
15255,990,857
15260,982,855
15265,976,858
15270,967,854
15275,962,855
15280,944,855
15285,947,849
15290,934,850
15295,922,851
15300,915,842
15305,907,844
15310,900,836
15315,879,838
15320,880,834
15325,861,830
15330,855,831
15335,851,829
15340,845,819
15345,839,821
15350,835,814
15355,816,814
15360,810,808
15365,786,809
15370,803,803
15375,793,792
15380,783,794
15385,772,792
15390,769,783
15395,761,777
15400,762,770
15405,751,767
15410,763,758
15415,758,756
15420,749,746
15425,752,749
15430,748,735
15435,742,737
15440,748,724
15445,754,720
15450,752,716
15455,755,708
15460,761,702
15465,766,698
15470,768,692
15475,774,684
15480,780,679
15485,783,675
15490,793,667
15495,806,670
15500,804,656
15505,824,655
15510,828,653
15515,844,644
15520,847,641
15525,859,639
15530,873,636
15535,880,636
15540,889,632
15545,902,635
15550,919,634
15555,930,630
15560,937,632
15565,951,638
15570,958,637
15575,988,636
15580,993,639
15585,1000,637
15590,1014,645
15595,1023,645
15600,1042,654
15605,1044,659
15610,1060,664
15615,1077,668
15620,1082,675
15625,1096,667
15630,1105,684
15635,1116,690
15640,1122,692
15645,1132,702
15650,1126,706
15655,1138,718
15660,1148,722
15665,1151,734
15670,1165,739
15675,1166,752
15680,1172,760
15685,1183,767
15690,1187,775
15695,1182,779
15700,1184,790
15705,1188,797
15710,1185,805
15715,1191,814
15720,1194,817
15725,1183,829
15730,1187,826
15735,1176,843
15740,1177,848
15745,1177,860
15750,1184,864
15755,1173,866
15760,1178,874
15765,1173,877
15770,1167,883
15775,1182,890
15780,1169,889
15785,1165,900
15790,1170,903
15795,1158,908
15800,1158,908
15805,1157,917
15810,1146,913
15815,1143,923
15820,1136,916
15825,1131,920
15830,1127,925
15835,1125,926
15840,1121,920
15845,1127,924
15850,1115,923
15855,1119,920
15860,1111,925
15865,1120,921
15870,1109,923
15875,1109,924
15880,1109,921
15885,1101,913
15890,1097,913
15895,1109,914
15900,1094,910
15905,1096,915
15910,1097,904
15915,1087,905
15920,1089,905
15925,1089,898
15930,1078,898
15935,1073,893
15940,1081,893
15945,1077,889
15950,1074,885
15955,1068,890
15960,1067,887
15965,1066,883
15970,1057,880
15975,1060,876
15980,1057,878
15985,1053,880
15990,1048,880
15995,1042,876
16000,1034,872
16004,1027,865
16010,1013,875
16015,1017,870
16020,1017,862
16024,1014,863
16030,1001,861
16035,990,864
16040,984,859
16045,976,858
16050,966,852
16055,963,853
16059,950,849
16065,952,852
16070,940,847
16075,925,857
16079,920,849
16085,909,841
16090,900,842
16094,889,839
16100,875,837
16105,873,836
16110,859,836
16114,853,829
16120,841,823
16125,837,821
16129,829,818
16135,823,814
16140,808,810
16145,796,801
16149,798,802
16155,787,796
16160,787,793
16165,774,788
16170,766,784
16175,771,776
16180,763,770
16184,751,767
16190,753,761
16195,754,753
16200,747,749
16204,751,742
16210,740,738
16215,743,733
16219,746,728
16225,750,715
16230,752,708
16235,750,709
16239,744,700
16245,759,700
16250,765,692
16254,771,678
16260,774,679
16265,782,676
16270,791,672
16274,809,660
16280,811,666
16285,820,655
16290,826,648
16295,846,645
16300,849,639
16305,867,643
16309,869,638
16315,883,633
16320,904,631
16325,903,631
16329,917,634
16335,932,637
16340,957,634
16344,959,638
16350,965,633
16355,990,639
16360,986,638
16364,998,641
16370,1017,647
16375,1034,645
16379,1040,649
16385,1060,656
16390,1063,664
16395,1077,668
16400,1086,672
16405,1091,678
16410,1103,681
16415,1112,688
16420,1122,693
16425,1123,700
16430,1137,706
16435,1142,712
16440,1151,722
16445,1155,728
16450,1154,740
16455,1165,749
16460,1163,751
16465,1181,766
16470,1186,775
16475,1181,783
16480,1183,793
16485,1174,792
16490,1189,803
16495,1187,815
16500,1182,823
16505,1193,833
16510,1185,833
16515,1183,841
16520,1179,848
16525,1195,858
16530,1187,862
16535,1181,865
16540,1177,875
16545,1171,880
16550,1169,885
16555,1167,888
16560,1177,895
16565,1177,898
16570,1162,907
16575,1161,904
16580,1154,913
16585,1153,909
16590,1150,919
16595,1134,920
16600,1142,922
16605,1142,919
16610,1132,920
16615,1124,922
16620,1137,926
16625,1124,925
16630,1110,921
16635,1121,923
16640,1111,924
16645,1112,921
16650,1113,921
16655,1117,922
16660,1102,913
16665,1100,915
16670,1096,916
16675,1095,912
16680,1097,918
16685,1093,910
16690,1091,907
16695,1090,908
16700,1086,903
16705,1082,898
16710,1085,892
16715,1089,897
16720,1083,900
16725,1067,892
16730,1069,891
16735,1066,890
16740,1076,883
16745,1067,880
16750,1057,876
16755,1062,879
16760,1047,877
16765,1046,876
16770,1043,882
16775,1045,870
16780,1033,867
16785,1026,868
16790,1017,864
16795,1013,865
16800,1006,869
16805,1002,858
16810,1001,860
16815,992,859
16820,984,863
16825,967,857
16830,955,856
16835,966,857
16840,959,854
16845,940,852
16850,938,849
16855,925,853
16860,917,844
16865,902,845
16870,892,837
16875,881,837
16880,872,839
16885,875,831
16890,862,832
16895,859,829
16900,848,828
16905,831,823
16910,829,815
16915,817,813
16920,813,812
16925,800,799
16930,793,802
16935,780,796
16940,779,794
16945,775,789
16950,767,787
16955,773,773
16960,758,773
16965,768,765
16970,749,770
16975,752,760
16980,750,743
16985,728,744
16990,745,735
16995,750,725
17000,740,726
17005,752,721
17010,751,712
17015,764,708
17020,755,703
17025,757,697
17030,765,690
17035,771,686
17040,781,678
17045,786,672
17050,798,671
17055,799,660
17060,807,656
17065,827,654
17070,828,655
17075,841,648
17080,845,646
17085,857,633
17090,855,639
17095,878,633
17100,892,631
17105,909,638
17110,920,633
17115,918,631
17120,945,634
17125,953,636
17130,960,639
17135,979,641
17140,1001,637
17145,1014,641
17150,1016,647
17155,1028,651
17160,1041,658
17165,1052,655
17170,1065,660
17175,1068,663
17180,1078,674
17185,1090,674
17190,1096,685
17195,1121,692
17200,1119,685
17205,1127,701
17210,1134,704
17215,1144,716
17220,1157,720
17225,1148,729
17230,1162,741
17235,1167,750
17240,1172,757
17245,1173,759
17250,1178,775
17255,1179,782
17260,1189,790
17265,1181,800
17270,1191,805
17275,1186,813
17280,1185,819
17285,1189,828
17290,1195,835
17295,1172,846
17300,1183,853
17305,1187,856
17310,1192,860
17315,1175,871
17320,1185,873
17325,1176,881
17330,1171,883
17335,1180,887
17340,1170,898
17345,1157,899
17350,1162,903
17355,1151,909
17360,1155,915
17365,1150,912
17370,1147,918
17375,1147,920
17380,1139,923
17385,1131,922
17390,1123,924
17395,1139,919
17400,1137,924
17405,1121,925
17410,1127,926
17415,1123,926
17420,1113,924
17425,1115,920
17430,1115,922
17435,1107,920
17440,1096,918
17445,1104,920
17450,1100,920
17455,1102,911
17460,1097,913
17465,1095,911
17470,1084,910
17475,1094,902
17480,1088,904
17485,1078,899
17490,1082,901
17495,1079,899
17500,1075,892
17505,1076,894
17510,1070,893
17515,1075,887
17520,1060,880
17525,1067,878
17530,1058,876
17535,1065,877
17540,1044,879
17545,1052,874
17550,1052,874
17555,1037,873
17560,1029,873
17565,1031,872
17570,1028,867
17575,1014,864
17580,1012,863
17585,1005,859
17590,992,864
17595,976,861
17600,979,853
17605,977,863
17610,963,856
17615,959,858
17620,944,851
17625,951,852
17630,930,852
17635,933,848
17640,913,840
17645,914,841
17650,896,844
17655,882,838
17660,885,834
17665,873,831
17670,864,837
17675,848,828
17680,845,824
17685,830,814
17690,832,820
17695,813,817
17700,814,806
17705,796,812
17710,797,803
17715,794,798
17720,774,794
17725,784,785
17730,776,777
17735,767,783
17740,755,772
17745,760,766
17750,757,763
17755,749,753
17760,754,750
17765,747,741
17770,755,741
17775,740,730
17780,745,720
17785,752,713
17790,763,711
17795,756,713
17800,751,702
17805,755,694
17810,768,690
17815,774,687
17820,775,683
17825,774,673
17830,790,666
17835,805,667
17840,802,659
17845,817,659
17850,832,650
17855,838,649
17860,845,647
17865,862,637
17870,864,640
17875,884,640
17880,899,636
17885,902,636
17890,920,627
17895,928,633
17900,935,639
17905,960,637
17910,962,634
17915,986,638
17920,983,642
17925,999,641
17930,1012,647
17935,1024,650
17940,1044,643
17945,1050,652
17950,1071,661
17955,1068,663
17960,1076,668
17965,1088,680
17970,1094,682
17975,1112,686
17980,1119,700
17985,1124,704
17990,1135,704
17995,1142,716
18000,1150,724
18005,1153,731
18010,1163,741
18015,1162,746
18020,1176,752
18025,1163,768
18030,1178,765
18035,1189,778
18040,1185,782
18045,1186,795
18050,1187,808
18055,1184,814
18060,1189,818
18065,1190,831
18070,1184,839
18075,1181,842
18080,1183,851
18085,1184,856
18090,1184,864
18095,1172,869
18100,1178,872
18105,1179,877
18110,1172,882
18115,1168,891
18120,1164,896
18125,1164,894
18130,1154,907
18135,1162,904
18140,1149,915
18145,1156,910
18150,1146,916
18155,1150,916
18160,1149,917
18165,1132,919
18170,1137,919
18175,1124,921
18180,1129,922
18185,1119,920
18190,1124,925
18195,1120,924
18200,1115,924
18205,1110,924
18210,1110,924
18215,1112,922
18220,1110,916
18225,1095,919
18230,1097,913
18235,1093,909
18240,1099,910
18245,1097,907
18250,1099,911
18255,1100,905
18260,1086,902
18265,1087,904
18270,1086,906
18275,1090,891
18280,1075,901
18285,1066,895
18290,1080,888
18295,1067,888
18300,1066,887
18305,1069,884
18310,1060,885
18315,1056,876
18320,1055,875
18325,1054,877
18330,1046,871
18335,1038,874
18340,1026,869
18345,1029,873
18350,1038,866
18355,1018,869
18360,1011,867
18365,1005,865
18370,999,861
18375,984,862
18380,987,860
18385,986,863
18390,965,856
18395,963,852
18400,954,852
18405,941,856
18410,930,851
18415,930,853
18420,912,844
18425,907,838
18430,898,845
18435,890,840
18440,876,839
18445,870,831
18450,866,830
18455,848,831
18460,830,820
18465,823,823
18470,824,814
18475,817,816
18480,816,813
18485,798,807
18490,791,800
18495,789,796
18500,777,788
18505,776,790
18510,773,783
18515,758,772
18520,766,767
18525,758,769
18530,757,761
18535,752,757
18540,741,747
18545,753,739
18550,746,741
18555,741,737
18560,751,731
18565,752,718
18570,745,713
18575,750,712
18580,766,707
18585,765,693
18590,758,686
18595,773,686
18600,777,678
18605,786,669
18610,789,669
18615,813,663
18620,799,660
18625,818,657
18630,826,657
18635,846,650
18640,841,644
18645,862,648
18650,871,641
18655,889,636
18660,892,636
18665,904,632
18670,911,636
18675,935,631
18680,948,631
18685,961,628
18690,962,632
18695,981,638
18700,991,635
18705,1008,643
18710,1023,641
18715,1034,646
18720,1045,652
18725,1052,659
18730,1063,659
18735,1067,665
18740,1089,668
18745,1094,675
18750,1093,686
18755,1102,690
18760,1114,698
18765,1126,703
18770,1127,711
18775,1153,718
18780,1139,723
18785,1153,729
18790,1162,736
18795,1166,747
18800,1171,754
18805,1168,762
18810,1175,772
18815,1185,778
18820,1173,789
18825,1184,797
18830,1189,803
18835,1183,812
18840,1199,820
18845,1195,834
18850,1188,836
18855,1184,844
18860,1182,852
18865,1179,860
18870,1182,861
18875,1174,862
18880,1174,882
18885,1182,881
18890,1179,885
18895,1164,894
18900,1167,894
18905,1157,898
18910,1163,901
18915,1162,905
18920,1157,912
18925,1154,919
18930,1142,913
18935,1145,919
18940,1141,921
18945,1139,922
18950,1138,915
18955,1127,924
18960,1128,920
18965,1130,926
18970,1119,918
18975,1118,925
18980,1116,922
18985,1116,924
18990,1106,925
18995,1102,923
19000,1108,918
19005,1108,913
19010,1097,914
19015,1094,916
19020,1102,911
19025,1099,908
19030,1095,904
19035,1097,905
19040,1091,904
19045,1085,897
19050,1080,907
19055,1084,896
19060,1079,888
19065,1076,890
19070,1071,887
19075,1074,885
19080,1065,888
19085,1065,887
19090,1056,886
19095,1048,882
19100,1056,878
19105,1057,879
19110,1043,878
19115,1043,873
19120,1032,869
19125,1023,869
19130,1021,870
19135,1014,872
19140,1005,860
19145,1002,863
19150,1000,859
19155,985,858
19160,986,859
19165,974,857
19170,973,855
19175,958,854
19180,953,850
19185,945,850
19190,924,850
19195,916,850
19200,917,847
19205,915,839
19210,899,843
19215,884,839
19220,879,835
19225,866,837
19230,866,830
19235,859,824
19240,844,827
19245,832,820
19250,820,819
19255,816,813
19260,813,809
19265,798,806
19270,797,803
19275,783,795
19280,791,791
19285,778,788
19290,772,784
19295,771,774
19300,768,772
19305,764,767
19310,746,759
19315,750,757
19320,745,751
19325,737,739
19330,752,736
19335,747,734
19340,745,723
19345,743,724
19350,749,717
19355,748,710
19360,762,703
19365,766,695
19370,765,692
19375,775,683
19380,779,682
19385,794,677
19390,795,669
19395,794,665
19400,815,655
19405,822,659
19410,823,657
19415,837,640
19420,850,641
19425,861,645
19430,876,639
19435,879,640
19440,894,638
19445,911,636
19450,921,631
19455,931,629
19460,942,634
19465,956,638
19470,969,638
19475,975,641
19480,990,639
19485,994,642
19490,1010,642
19495,1034,648
19500,1042,652
19505,1049,658
19510,1069,656
19515,1075,668
19520,1083,670
19525,1096,679
19530,1095,682
19535,1110,686
19540,1117,696
19545,1128,704
19550,1132,708
19555,1141,713
19560,1154,723
19565,1157,733
19570,1159,741
19575,1167,744
19580,1176,762
19585,1173,766
19590,1181,775
19595,1181,786
19600,1178,788
19605,1184,797
19610,1182,803
19615,1193,813
19620,1187,820
19625,1188,825
19630,1201,844
19635,1184,841
19640,1182,851
19645,1182,854
19650,1190,867
19655,1179,869
19660,1181,872
19665,1169,879
19670,1180,878
19675,1171,886
19680,1177,899
19685,1163,896
19690,1162,914
19695,1162,908
19700,1155,909
19705,1153,911
19710,1146,915
19715,1148,916
19720,1141,920
19725,1138,925
19730,1138,925
19735,1141,923
19740,1130,922
19745,1131,918
19750,1117,921
19755,1118,918
19760,1122,922
19765,1113,924
19770,1111,919
19775,1117,920
19780,1104,916
19785,1101,913
19790,1103,908
19795,1089,911
19800,1096,913
19805,1103,904
19810,1098,909
19815,1096,910
19820,1090,902
19825,1093,898
19830,1074,898
19835,1092,895
19840,1078,896
19845,1083,894
19850,1069,893
19855,1068,885
19860,1067,887
19865,1072,883
19870,1056,876
19875,1059,876
19880,1053,877
19885,1042,874
19890,1046,873
19895,1045,868
19900,1039,866
19905,1026,871
19910,1026,867
19915,1010,867
19920,1007,865
19925,1004,858
19930,1000,864
19935,992,860
19940,984,861
19945,970,857
19950,966,856
19955,961,849
19960,953,851
19965,953,851
19970,947,850
19975,930,845
19980,924,840
19985,914,840
19990,896,840
19995,880,836
20000,877,839
20005,865,834
20010,863,834
20015,853,834
20020,855,833
20025,836,821
20030,832,815
20035,819,817
20040,799,811
20045,799,808
20050,789,801
20055,789,796
20060,788,788
20065,777,788
20070,771,785
20075,765,783
20080,752,774
20085,763,767
20090,756,761
20095,753,757
20100,743,757
20105,746,747
20110,753,734
20115,748,732
20120,751,727
20125,753,716
20130,755,715
20135,757,705
20140,759,695
20145,768,700
20150,766,694
20155,771,686
20160,774,677
20165,787,677
20170,795,668
20175,796,667
20180,806,657
20185,820,657
20190,838,646
20195,840,654
20200,837,644
20205,864,640
20210,867,643
20215,878,642
20220,890,636
20225,905,633
20230,916,630
20235,931,630
20240,941,636
20245,953,631
20250,953,637
20255,978,637
20260,988,644
20265,1008,643
20270,1017,643
20275,1027,650
20280,1042,649
20285,1048,657
20290,1071,660
20295,1071,670
20300,1078,669
20305,1101,673
20310,1108,680
20315,1106,689
20320,1113,699
20325,1127,696
20330,1135,712
20335,1139,717
20340,1149,721
20345,1154,733
20350,1160,735
20355,1170,750
20360,1164,758
20365,1170,760
20370,1190,776
20375,1180,778
20380,1178,785
20385,1194,797
20390,1187,806
20395,1181,812
20400,1178,822
20405,1189,823
20410,1199,837
20415,1179,843
20420,1187,844
20425,1187,854
20430,1186,859
20435,1184,865
20440,1173,870
20445,1181,880
20450,1179,885
20455,1166,894
20460,1178,892
20465,1156,901
20470,1157,903
20475,1155,904
20480,1156,906
20485,1154,910
20490,1155,909
20495,1141,916
20500,1150,918
20505,1129,920
20510,1133,917
20515,1134,916
20520,1125,921
20525,1129,926
20530,1122,922
20535,1107,922
20540,1115,921
20545,1109,922
20550,1110,922
20555,1116,922
20560,1108,924
20565,1100,915
20570,1098,917
20575,1097,910
20580,1088,914
20585,1097,904
20590,1100,907
20595,1090,901
20600,1098,905
20605,1082,904
20610,1081,898
20615,1076,894
20620,1080,891
20625,1074,895
20630,1075,884
20635,1067,889
20640,1070,890
20645,1058,885
20650,1065,883
20655,1050,880
20660,1050,875
20665,1044,879
20670,1039,872
20675,1040,874
20680,1040,870
20685,1030,866
20690,1030,867
20695,1015,867
20700,1010,864
20705,1002,859
20710,1002,858
20715,992,859
20720,983,855
20725,975,854
20730,965,857
20735,955,854
20740,953,854
20745,941,850
20750,940,855
20755,919,848
20760,914,847
20765,908,842
20770,904,839
20775,896,836
20780,864,835
20785,866,839
20790,859,830
20795,854,828
20800,840,823
20805,836,818
20810,828,817
20815,818,818
20820,798,808
20825,801,805
20830,796,795
20835,787,797
20840,791,789
20845,783,789
20850,776,780
20855,771,779
20860,758,772
20865,761,764
20870,757,761
20875,751,758
20880,749,753
20885,752,744
20890,750,740
20895,751,732
20900,745,723
20905,749,718
20910,748,713
20915,738,708
20920,762,698
20925,770,695
20930,762,691
20935,775,683
20940,777,680
20945,783,676
20950,788,676
20955,792,662
20960,804,657
20965,818,652
20970,823,659
20975,845,651
20980,848,648
20985,861,643
20990,876,636
20995,875,635
21000,900,630
21005,904,630
21010,917,632
21015,925,629
21020,930,628
21025,946,633
21030,962,634
21035,986,634
21040,996,641
21045,1009,640
21050,1018,647
21055,1036,643
21060,1040,652
21065,1048,655
21070,1060,654
21075,1070,672
21080,1084,669
21085,1087,674
21090,1090,681
21095,1102,690
21100,1131,699
21105,1122,701
21110,1135,713
21115,1140,712
21120,1149,722
21125,1160,732
21130,1154,744
21135,1176,746
21140,1174,756
21145,1176,767
21150,1177,770
21155,1191,778
21160,1186,791
21165,1190,792
21170,1185,805
21175,1185,815
21180,1194,821
21185,1190,829
21190,1195,833
21195,1187,835
21200,1179,848
21205,1186,856
21210,1178,864
21215,1172,868
21220,1177,870
21225,1176,881
21230,1162,882
21235,1171,893
21240,1175,897
21245,1159,902
21250,1165,903
21255,1155,911
21260,1145,912
21265,1146,914
21270,1151,916
21275,1140,916
21280,1143,922
21285,1141,921
21290,1137,918
21295,1130,920
21300,1137,925
21305,1117,924
21310,1122,927
21315,1124,921
21320,1116,928
21325,1118,917
21330,1117,912
21335,1114,920
21340,1106,915
21345,1106,915
21350,1100,918
21355,1087,912
21360,1090,910
21365,1099,911
21370,1099,904
21375,1091,906
21380,1088,899
21385,1090,905
21390,1081,898
21395,1081,900
21400,1079,890
21405,1070,889
21410,1069,887
21415,1074,888
21420,1068,885
21425,1065,889
21430,1067,888
21435,1055,875
21440,1050,882
21445,1056,869
21450,1045,871
21455,1041,874
21460,1039,875
21465,1027,865
21470,1026,870
21475,1021,870
21480,1012,869
21485,1003,865
21490,997,860
21495,999,864
21500,980,861
21505,979,856
21510,958,856
21515,951,859
21520,954,848
21525,940,851
21530,931,848
21535,927,850
21540,923,848
21545,910,848
21550,898,840
21555,891,841
21560,881,833
21565,871,833
21570,859,830
21575,856,831
21580,843,828
21585,832,821
21590,834,813
21595,825,812
21600,809,813
21605,803,804
21610,786,798
21615,785,799
21620,786,793
21625,781,785
21630,761,786
21635,769,776
21640,762,775
21645,757,765
21650,746,756
21655,751,756
21660,741,746
21665,754,750
21670,744,737
21675,745,730
21680,751,732
21685,741,722
21690,748,709
21695,748,703
21700,755,699
21705,761,696
21710,760,693
21715,779,690
21720,776,684
21725,780,671
21730,795,668
21735,807,666
21740,815,664
21745,813,653
21750,829,650
21755,841,648
21760,851,648
21765,855,642
21770,864,641
21775,882,638
21780,893,634
21785,902,637
21790,924,635
21795,928,632
21800,941,634
21805,952,631
21810,960,634
21815,973,638
21820,994,640
21825,1000,638
21830,1008,644
21835,1029,646
21840,1037,653
21845,1045,650
21850,1059,662
21855,1071,669
21860,1083,675
21865,1103,676
21870,1102,680
21875,1116,689
21880,1116,695
21885,1131,698
21890,1126,711
21895,1151,713
21900,1156,724
21905,1145,734
21910,1154,742
21915,1169,753
21920,1168,756
21925,1178,768
21930,1165,771
21935,1173,778
21940,1193,790
21945,1189,796
21950,1180,803
21955,1182,806
21960,1181,823
21965,1179,826
21970,1186,830
21975,1195,842
21980,1193,851
21985,1176,857
21990,1183,864
21995,1176,869
22000,1183,874
22005,1171,880
22010,1175,881
22015,1167,888
22020,1174,891
22025,1164,900
22030,1154,895
22035,1157,907
22040,1152,910
22045,1157,906
22050,1146,912
22055,1149,912
22060,1140,919
22065,1137,922
22070,1131,920
22075,1129,920
22080,1129,919
22085,1125,920
22090,1126,926
22095,1116,922
22100,1121,920
22105,1104,922
22110,1110,919
22115,1104,921
22120,1108,924
22125,1104,916
22130,1097,913
22135,1091,916
22140,1100,914
22145,1110,911
22150,1098,909
22155,1079,905
22160,1088,904
22165,1096,903
22170,1085,897
22175,1084,889
22180,1078,895
22185,1065,889
22190,1070,887
22195,1066,889
22200,1066,881
22205,1057,880
22210,1066,883
22215,1052,879
22220,1038,881
22225,1041,877
22230,1045,875
22235,1040,872
22240,1039,869
22245,1027,871
22250,1024,862
22255,1012,867
22260,1014,874
22265,1003,857
22270,1001,864
22275,998,859
22280,988,855
22285,973,859
22290,965,861
22295,969,853
22300,951,851
22305,942,845
22310,929,854
22315,935,848
22320,909,844
22325,910,845
22330,902,845
22335,885,839
22340,877,840
22345,875,836
22350,861,829
22355,862,821
22360,834,829
22365,830,820
22370,822,819
22375,815,816
22380,804,812
22385,807,808
22390,796,799
22395,793,792
22400,779,795
22405,776,790
22410,774,782
22415,759,778
22420,758,774
22425,764,767
22430,752,760
22435,750,752
22440,748,745
22445,743,744
22450,752,739
22455,745,728
22460,747,728
22465,745,718
22470,758,713
22475,759,712
22480,760,705
22485,762,696
22490,764,686
22495,775,684
22500,778,683
22505,789,677
22510,781,673
22515,805,663
22520,807,659
22525,818,656
22530,838,659
22535,838,652
22540,844,640
22545,852,643
22550,872,638
22555,882,633
22560,894,639
22565,903,637
22570,918,634
22575,918,632
22580,927,634
22585,953,629
22590,968,639
22595,977,642
22600,993,633
22605,1012,638
22610,1013,642
22615,1029,646
22620,1039,653
22625,1045,658
22630,1059,655
22635,1082,660
22640,1092,669
22645,1094,677
22650,1098,685
22655,1113,685
22660,1117,695
22665,1132,703
22670,1131,706
22675,1138,718
22680,1148,723
22685,1151,732
22690,1164,735
22695,1168,745
22700,1174,758
22705,1180,760
22710,1171,768
22715,1179,782
22720,1173,789
22725,1186,800
22730,1180,803
22735,1196,813
22740,1186,816
22745,1185,834
22750,1184,839
22755,1198,843
22760,1191,847
22765,1184,855
22770,1174,866
22775,1172,872
22780,1179,871
22785,1183,878
22790,1179,883
22795,1167,889
22800,1161,899
22805,1168,895
22810,1157,904
22815,1158,913
22820,1150,911
22825,1154,913
22830,1145,914
22835,1149,920
22840,1144,920
22845,1141,921
22850,1138,920
22855,1124,920
22860,1129,925
22865,1128,924
22870,1120,923
22875,1110,917
22880,1106,926
22885,1115,921
22890,1114,922
22895,1113,916
22900,1104,924
22905,1111,918
22910,1105,918
22915,1092,911
22920,1103,914
22925,1093,909
22930,1097,907
22935,1091,907
22940,1081,905
22945,1083,900
22950,1075,895
22955,1085,897
22960,1089,894
22965,1074,890
22970,1070,888
22975,1073,890
22980,1067,883
22985,1065,883
22990,1063,882
22995,1060,875
23000,1049,877
23005,1051,876
23010,1040,868
23015,1049,873
23020,1033,871
23025,1029,866
23030,1020,871
23035,1009,866
23040,1010,860
23045,999,862
23050,991,861
23055,992,860
23060,983,854
23065,982,856
23070,956,853
23075,968,855
23080,945,856
23085,946,853
23090,935,843
23095,922,846
23100,908,852
23105,902,845
23110,902,842
23115,879,840
23120,879,845
23125,869,840
23130,853,827
23135,847,832
23140,845,823
23145,836,825
23150,819,819
23155,819,813
23160,808,813
23165,807,805
23170,794,802
23175,785,799
23180,784,792
23185,777,786
23190,764,788
23195,764,778
23200,769,774
23205,764,767
23210,755,759
23215,749,755
23220,752,750
23225,746,741
23230,752,736
23235,753,730
23240,756,726
23245,742,720
23250,756,716
23255,754,712
23260,761,704
23265,765,696
23270,771,692
23275,776,688
23280,773,676
23285,782,671
23290,792,673
23295,792,665
23300,809,658
23305,820,656
23310,822,655
23315,838,653
23320,851,647
23325,859,636
23330,870,640
23335,884,637
23340,888,640
23345,896,628
23350,914,635
23355,931,633
23360,937,637
23365,956,636
23370,970,635
23375,974,641
23380,986,640
23385,1004,645
23390,1014,647
23395,1030,644
23400,1024,654
23405,1046,651
23410,1060,662
23415,1076,662
23420,1081,670
23425,1094,679
23430,1107,681
23435,1115,689
23440,1112,697
23445,1124,701
23450,1131,702
23455,1140,709
23460,1141,722
23465,1156,730
23470,1168,745
23475,1162,752
23480,1168,756
23485,1176,764
23490,1180,774
23495,1179,783
23500,1175,790
23505,1181,795
23510,1181,808
23515,1183,813
23520,1188,817
23525,1180,824
23530,1194,839
23535,1183,846
23540,1188,847
23545,1186,857
23550,1180,863
23555,1186,865
23560,1185,877
23565,1173,878
23570,1173,883
23575,1168,886
23580,1161,894
23585,1158,901
23590,1156,902
23595,1163,903
23600,1148,912
23605,1152,913
23610,1142,915
23615,1147,915
23620,1140,920
23625,1142,920
23630,1132,923
23635,1123,921
23640,1118,920
23645,1127,924
23650,1119,926
23655,1114,919
23660,1121,927
23665,1112,918
23670,1112,921
23675,1110,919
23680,1105,917
23685,1109,915
23690,1098,915
23695,1097,912
23700,1084,913
23705,1085,901
23710,1081,910
23715,1089,899
23720,1086,903
23725,1088,894
23730,1091,898
23735,1085,898
23740,1070,897
23745,1084,897
23750,1079,893
23755,1073,888
23760,1065,887
23765,1071,882
23770,1062,884
23775,1060,872
23780,1054,876
23785,1042,873
23790,1048,873
23795,1045,875
23800,1043,872
23805,1027,872
23810,1018,869
23815,1013,864
23820,1003,861
23825,1002,861
23830,994,864
23835,992,857
23840,998,856
23845,986,862
23850,968,858
23855,957,855
23860,948,856
23865,940,854
23870,935,848
23875,930,846
23880,914,846
23885,910,845
23890,893,838
23895,891,840
23900,872,839
23905,868,834
23910,858,832
23915,846,829
23920,853,823
23925,838,819
23930,833,821
23935,824,816
23940,812,808
23945,800,807
23950,798,798
23955,780,800
23960,780,787
23965,775,786
23970,772,781
23975,774,774
23980,761,770
23985,762,771
23990,747,761
23995,751,753
24000,746,750
24005,743,744
24010,744,744
24015,748,729
24020,737,726
24025,757,718
24030,757,714
24035,748,709
24040,761,703
24045,762,701
24050,763,687
24055,768,681
24060,773,683
24065,799,676
24070,791,668
24075,795,666
24080,811,661
24085,831,658
24090,826,651
24095,845,653
24100,858,645
24105,857,638
24110,869,639
24115,891,635
24120,897,637
24125,902,633
24130,917,636
24135,929,632
24140,939,629
24145,962,636
24150,964,632
24155,973,637
24160,990,641
24165,996,640
24170,1008,646
24175,1021,642
24180,1041,653
24185,1046,660
24190,1062,660
24195,1075,665
24200,1087,673
24205,1090,673
24210,1100,682
24215,1116,691
24220,1122,695
24225,1129,704
24230,1139,708
24235,1137,716
24240,1151,730
24245,1156,732
24250,1170,740
24255,1167,748
24260,1173,757
24265,1168,762
24270,1176,773
24275,1178,782
24280,1185,789
24285,1191,795
24290,1184,806
24295,1189,812
24300,1185,818
24305,1194,833
24310,1193,833
24315,1178,837
24320,1185,849
24325,1176,855
24330,1181,859
24335,1181,866
24340,1182,867
24345,1175,883
24350,1163,880
24355,1167,892
24360,1161,895
24365,1165,897
24370,1154,901
24375,1156,908
24380,1159,907
24385,1143,915
24390,1155,914
24395,1137,913
24400,1134,915
24405,1137,918
24410,1142,924
24415,1125,920
24420,1127,921
24425,1120,925
24430,1122,924
24435,1114,922
24440,1114,922
24445,1107,922
24450,1122,922
24455,1101,921
24460,1105,919
24465,1106,917
24470,1098,915
24475,1095,913
24480,1103,909
24485,1110,910
24490,1099,910
24495,1087,902
24500,1091,904
24505,1090,906
24510,1078,895
24515,1070,896
24520,1078,890
24525,1077,890
24530,1078,889
24535,1074,886
24540,1068,886
24545,1069,878
24550,1058,886
24555,1054,877
24560,1050,878
24565,1052,880
24570,1044,878
24575,1038,877
24580,1032,875
24585,1029,866
24590,1024,868
24595,1018,864
24600,1003,868
24605,1009,868
24610,999,859
24615,996,861
24620,988,863
24625,979,857
24630,967,855
24635,968,849
24640,949,851
24645,946,850
24650,935,846
24655,927,853
24660,918,848
24665,906,845
24670,905,843
24675,887,840
24680,878,839
24685,868,827
24690,849,837
24695,848,831
24700,847,824
24705,829,820
24710,828,822
24715,814,815
24720,807,815
24725,803,812
24730,790,802
24735,791,800
24740,782,794
24745,778,781
24750,773,779
24755,767,781
24760,755,770
24765,760,769
24770,750,763
24775,741,762
24780,749,753
24785,751,738
24790,747,733
24795,748,732
24800,743,723
24805,751,723
24810,756,713
24815,748,709
24820,763,701
24825,759,694
24830,768,692
24835,769,689
24840,790,680
24845,792,681
24850,792,670
24855,805,667
24860,802,661
24865,807,658
24870,833,654
24875,842,647
24880,842,644
24885,861,638
24890,863,641
24895,884,637
24900,897,633
24905,905,636
24910,922,634
24915,928,637
24920,937,631
24925,953,633
24930,965,640
24935,989,636
24940,994,639
24945,1003,640
24950,1011,646
24955,1028,651
24960,1047,648
24965,1042,652
24970,1054,656
24975,1074,664
24980,1093,664
24985,1093,673
24990,1104,682
24995,1108,686
25000,1123,694
25005,1131,706
25010,1138,711
25015,1143,716
25020,1154,726
25025,1156,731
25030,1168,738
25035,1175,747
25040,1171,755
25045,1172,765
25050,1178,773
25055,1183,778
25060,1182,792
25065,1181,792
25070,1195,811
25075,1186,813
25080,1181,820
25085,1191,826
25090,1189,833
25095,1191,844
25100,1182,847
25105,1198,860
25110,1185,861
25115,1182,871
25120,1179,876
25125,1172,871
25130,1176,885
25135,1171,895
25140,1171,892
25145,1163,899
25150,1155,908
25155,1148,905
25160,1164,908
25165,1145,919
25170,1148,914
25175,1143,918
25180,1138,915
25185,1136,923
25190,1138,927
25195,1137,921
25200,1126,926
25205,1125,926
25210,1118,926
25215,1115,923
25220,1117,924
25225,1109,921
25230,1118,920
25235,1110,922
25240,1114,917
25245,1099,920
25250,1101,915
25255,1101,912
25260,1094,911
25265,1086,904
25270,1086,907
25275,1084,907
25280,1087,902
25285,1089,893
25290,1085,897
25295,1081,896
25300,1072,888
25305,1069,887
25310,1073,895
25315,1061,887
25320,1073,879
25325,1059,887
25330,1061,883
25335,1060,873
25340,1059,877
25345,1061,876
25350,1044,875
25355,1043,868
25360,1040,870
25365,1033,871
25370,1023,871
25375,1020,865
25380,1008,860
25385,1017,867
25390,1001,861
25395,989,861
25400,986,860
25405,978,853
25410,969,858
25415,952,852
25420,949,846
25425,941,849
25430,941,845
25435,930,846
25440,918,844
25445,914,844
25450,907,840
25455,893,836
25460,890,829
25465,873,833
25470,863,831
25475,857,830
25480,852,828
25485,846,825
25490,823,822
25495,815,812
25500,820,813
25505,810,804
25510,793,799
25515,791,796
25520,786,787
25525,776,785
25530,775,785
25535,763,780
25540,764,771
25545,758,772
25550,754,762
25555,746,757
25560,753,753
25565,751,744
25570,747,740
25575,757,731
25580,752,725
25585,746,714
25590,750,714
25595,750,703
25600,760,704
25605,762,699
25610,770,685
25615,773,689
25620,781,679
25625,779,675
25630,796,673
25635,791,668
25640,801,658
25645,825,658
25650,824,658
25655,836,650
25660,846,647
25665,844,644
25670,873,645
25675,883,634
25680,893,638
25685,903,635
25690,916,629
25695,937,633
25700,942,633
25705,959,638
25710,973,637
25715,977,638
25720,985,643
25725,1004,637
25730,1017,644
25735,1022,650
25740,1038,653
25745,1054,658
25750,1068,660
25755,1070,662
25760,1078,668
25765,1098,675
25770,1086,681
25775,1105,690
25780,1118,695
25785,1131,701
25790,1136,712
25795,1143,714
25800,1149,723
25805,1151,732
25810,1160,737
25815,1167,748
25820,1164,753
25825,1175,758
25830,1176,771
25835,1170,785
25840,1183,789
25845,1183,798
25850,1183,801
25855,1190,812
25860,1186,822
25865,1192,826
25870,1187,834
25875,1184,839
25880,1188,850
25885,1181,855
25890,1184,859
25895,1175,869
25900,1178,877
25905,1171,880
25910,1176,893
25915,1165,892
25920,1172,896
25925,1160,904
25930,1161,903
25935,1160,901
25940,1147,911
25945,1151,914
25950,1140,913
25955,1145,921
25960,1139,919
25965,1132,920
25970,1134,921
25975,1129,923
25980,1133,930
25985,1115,919
25990,1123,922
25995,1129,921
26000,1113,924
26005,1114,920
26010,1105,920
26015,1107,921
26020,1093,916
26025,1104,916
26030,1093,915
26035,1099,915
26040,1095,915
26045,1087,909
26050,1100,909
26055,1089,902
26060,1090,899
26065,1088,900
26070,1078,898
26075,1079,900
26080,1086,889
26085,1078,893
26090,1078,886
26095,1068,890
26100,1070,885
26105,1062,883
26110,1060,880
26115,1055,882
26120,1056,879
26125,1040,873
26130,1042,874
26135,1035,871
26140,1032,874
26145,1031,865
26150,1015,869
26155,1021,858
26160,1012,863
26165,1006,861
26170,1007,861
26175,994,860
26180,984,863
26185,973,863
26190,975,850
26195,963,853
26200,959,856
26205,945,848
26210,942,851
26215,930,844
26220,910,844
26225,912,844
26230,897,841
26235,887,834
26240,873,831
26245,867,836
26250,860,830
26255,847,829
26260,847,827
26265,847,820
26270,828,819
26275,808,814
26280,803,808
26285,805,805
26290,789,800
26295,792,797
26300,778,799
26305,772,785
26310,773,780
26315,768,779
26320,764,773
26325,763,763
26330,759,762
26335,753,756
26340,741,755
26345,751,742
26350,742,736
26355,746,731
26360,745,724
26365,744,720
26370,747,719
26375,749,708
26380,757,698
26385,748,695
26390,764,688
26395,766,679
26400,773,684
26405,791,676
26410,793,672
26415,796,664
26420,807,659
26425,818,661
26430,823,654
26435,847,648
26440,851,642
26445,854,643
26450,878,636
26455,880,636
26460,893,641
26465,910,633
26470,927,629
26475,940,633
26480,944,636
26485,953,632
26490,957,632
26495,980,635
26500,992,645
26505,1003,642
26510,1017,645
26515,1028,646
26520,1043,647
26525,1047,654
26530,1055,655
26535,1072,666
26540,1081,674
26545,1089,679
26550,1103,680
26555,1109,690
26560,1116,695
26565,1127,703
26570,1134,710
26575,1148,717
26580,1145,726
26585,1149,728
26590,1161,736
26595,1166,741
26600,1171,746
26605,1175,759
26610,1176,772
26615,1179,776
26620,1188,790
26625,1178,797
26630,1186,801
26635,1195,811
26640,1182,819
26645,1183,824
26650,1182,840
26655,1185,839
26660,1186,847
26665,1173,850
26670,1189,864
26675,1179,864
26680,1183,879
26685,1172,878
26690,1175,892
26695,1173,890
26700,1170,891
26705,1164,895
26710,1154,904
26715,1151,909
26720,1155,905
26725,1149,911
26730,1144,919
26735,1149,917
26740,1140,918
26745,1135,917
26750,1127,921
26755,1126,926
26760,1127,930
26765,1126,920
26770,1125,923
26775,1110,919
26780,1115,926
26785,1124,924
26790,1105,913
26795,1110,918
26800,1112,923
26805,1097,916
26810,1104,915
26815,1092,916
26820,1097,907
26825,1085,906
26830,1094,906
26835,1085,903
26840,1087,905
26845,1095,904
26850,1086,898
26855,1080,894
26860,1071,887
26865,1079,891
26870,1069,890
26875,1078,887
26880,1075,889
26885,1067,879
26890,1057,883
26895,1057,880
26900,1054,881
26905,1055,876
26910,1042,877
26915,1045,872
26920,1029,872
26925,1033,867
26930,1016,866
26935,1018,863
26940,1014,863
26945,1007,865
26950,996,863
26955,993,858
26960,983,854
26965,982,855
26970,964,857
26975,966,850
26980,947,851
26985,939,847
26990,936,854
26995,930,848
27000,921,844
27005,912,845
27010,897,841
27015,883,844
27020,878,834
27025,871,832
27030,864,835
27035,848,828
27040,842,822
27045,832,826
27050,827,819
27055,818,815
27060,805,816
27065,809,807
27070,793,797
27075,788,797
27080,786,792
27085,780,790
27090,765,791
27095,766,781
27100,765,774
27105,773,767
27110,747,762
27115,754,754
27120,755,751
27125,752,745
27130,738,740
27135,747,733
27140,746,730
27145,745,721
27150,752,710
27155,753,707
27160,753,708
27165,752,692
27170,768,693
27175,769,687
27180,779,677
27185,787,675
27190,791,668
27195,807,668
27200,802,662
27205,826,656
27210,835,648
27215,835,648
27220,853,646
27225,863,642
27230,861,638
27235,869,639
27240,897,639
27245,900,632
27250,920,634
27255,922,634
27260,939,632
27265,950,633
27270,969,637
27275,977,637
27280,994,634
27285,1008,643
27290,1017,646
27295,1033,643
27300,1035,647
27305,1044,660
27310,1066,665
27315,1072,665
27320,1085,664
27325,1087,678
27330,1095,683
27335,1113,689
27340,1118,698
27345,1131,698
27350,1140,713
27355,1140,714
27360,1149,719
27365,1158,729
27370,1160,741
27375,1163,747
27380,1174,754
27385,1175,763
27390,1181,771
27395,1178,774
27400,1190,785
27405,1188,790
27410,1177,806
27415,1188,810
27420,1205,819
27425,1191,825
27430,1187,835
27435,1190,839
27440,1195,849
27445,1183,850
27450,1183,867
27455,1181,868
27460,1182,872
27465,1178,874
27470,1175,886
27475,1175,891
27480,1167,894
27485,1172,892
27490,1170,901
27495,1157,904
27500,1157,909
27505,1145,919
27510,1152,913
27515,1139,913
27520,1142,918
27525,1131,916
27530,1138,924
27535,1130,926
27540,1130,924
27545,1132,923
27550,1130,923
27555,1117,926
27560,1121,923
27565,1114,923
27570,1105,917
27575,1109,922
27580,1107,915
27585,1101,921
27590,1102,912
27595,1093,915
27600,1102,913
27605,1101,907
27610,1093,904
27615,1090,905
27620,1090,902
27625,1076,901
27630,1084,901
27635,1092,901
27640,1078,893
27645,1075,892
27650,1069,889
27655,1070,887
27660,1065,885
27665,1062,884
27670,1068,879
27675,1057,880
27680,1049,881
27685,1058,869
27690,1047,876
27695,1046,878
27700,1031,872
27705,1031,865
27710,1020,871
27715,1017,865
27720,1012,866
27725,1003,864
27730,995,867
27735,990,855
27740,980,861
27745,978,857
27750,969,859
27755,957,858
27760,950,854
27765,941,853
27770,940,851
27775,923,848
27780,917,847
27785,924,846
27790,893,843
27795,889,835
27800,875,836
27805,875,836
27810,862,837
27815,854,824
27820,849,820
27825,836,819
27830,829,822
27835,804,816
27840,819,807
27845,801,809
27850,797,805
27855,796,798
27860,784,789
27865,779,786
27870,770,784
27875,766,779
27880,763,774
27885,758,765
27890,755,768
27895,751,757
27900,746,750
27905,742,747
27910,743,734
27915,751,741
27920,756,722
27925,755,722
27930,760,713
27935,756,711
27940,756,704
27945,761,697
27950,766,694
27955,770,684
27960,779,683
27965,780,673
27970,798,676
27975,803,660
27980,807,663
27985,825,655
27990,822,649
27995,840,651
28000,853,643
28005,853,642
28010,875,636
28015,881,641
28020,892,637
28025,918,633
28030,919,628
28035,933,632
28040,938,628
28045,955,636
28050,968,641
28055,965,639
28060,983,643
28065,998,642
28070,1018,647
28075,1029,648
28080,1039,649
28085,1046,654
28090,1064,664
28095,1067,661
28100,1075,669
28105,1093,672
28110,1100,685
28115,1115,687
28120,1115,698
28125,1123,703
28130,1143,710
28135,1135,713
28140,1142,722
28145,1151,731
28150,1155,744
28155,1172,753
28160,1169,752
28165,1180,761
28170,1174,772
28175,1175,782
28180,1180,786
28185,1186,792
28190,1186,803
28195,1192,812
28200,1184,821
28205,1187,830
28210,1190,834
28215,1191,842
28220,1191,846
28225,1189,849
28230,1174,864
28235,1171,865
28240,1184,876
28245,1176,881
28250,1171,885
28255,1159,890
28260,1162,894
28265,1164,897
28270,1172,904
28275,1160,901
28280,1158,914
28285,1152,910
28290,1148,912
28295,1151,913
28300,1136,918
28305,1133,921
28310,1141,925
28315,1127,919
28320,1136,928
28325,1122,922
28330,1124,917
28335,1115,923
28340,1119,918
28345,1109,921
28350,1114,922
28355,1103,919
28360,1100,920
28365,1097,911
28370,1103,915
28375,1093,911
28380,1092,913
28385,1082,918
28390,1096,906
28395,1086,906
28400,1094,901
28405,1090,900
28410,1083,899
28415,1093,901
28420,1067,899
28425,1077,894
28430,1078,889
28435,1069,888
28440,1061,890
28445,1067,880
28450,1052,883
28455,1060,878
28460,1053,877
28465,1052,870
28470,1047,874
28475,1052,872
28480,1042,871
28485,1019,865
28490,1011,864
28495,1011,867
28500,1009,866
28505,1002,861
28510,1002,859
28515,989,863
28520,985,858
28525,984,856
28530,968,856
28535,966,852
28540,958,855
28545,946,850
28550,938,853
28555,929,853
28560,918,844
28565,923,841
28570,909,841
28575,894,840
28580,879,832
28585,868,838
28590,863,835
28595,856,825
28600,849,828
28605,827,814
28610,822,814
28615,810,810
28620,811,811
28625,806,802
28630,798,798
28635,783,795
28640,784,799
28645,768,791
28650,762,780
28655,768,775
28660,756,770
28665,758,762
28670,748,766
28675,747,757
28680,752,750
28685,750,745
28690,743,736
28695,746,731
28700,756,727
28705,748,720
28710,752,713
28715,749,709
28720,764,706
28725,759,692
28730,767,690
28735,770,684
28740,782,677
28745,789,674
28750,797,669
28755,796,667
28760,806,661
28765,817,654
28770,827,653
28775,832,650
28780,850,645
28785,867,632
28790,866,641
28795,871,638
28800,888,637
28805,902,634
28810,919,642
28815,935,636
28820,940,636
28825,952,636
28830,963,636
28835,975,627
28840,991,638
28845,1007,641
28850,1005,642
28855,1021,648
28860,1040,654
28865,1051,655
28870,1062,660
28875,1072,665
28880,1080,671
28885,1085,675
28890,1109,684
28895,1114,681
28900,1124,690
28905,1131,705
28910,1134,705
28915,1136,715
28920,1148,720
28925,1154,735
28930,1163,739
28935,1162,743
28940,1174,759
28945,1172,765
28950,1175,768
28955,1177,782
28960,1185,795
28965,1187,795
28970,1178,806
28975,1189,812
28980,1188,815
28985,1192,826
28990,1182,829
28995,1185,837
29000,1194,845
29005,1181,854
29010,1183,861
29015,1169,869
29020,1190,871
29025,1178,877
29030,1174,890
29035,1176,889
29040,1162,891
29045,1154,902
29050,1157,904
29055,1155,902
29060,1148,912
29065,1145,909
29070,1154,916
29075,1132,920
29080,1144,920
29085,1127,919
29090,1136,919
29095,1139,922
29100,1133,929
29105,1128,920
29110,1118,926
29115,1115,921
29120,1115,920
29125,1112,918
29130,1116,923
29135,1104,921
29140,1106,917
29145,1101,918
29150,1104,915
29155,1099,912
29160,1101,908
29165,1099,908
29170,1092,910
29175,1084,904
29180,1085,904
29185,1084,903
29190,1087,899
29195,1081,898
29200,1073,891
29205,1073,891
29210,1079,883
29215,1069,889
29220,1062,889
29225,1069,886
29230,1063,881
29235,1064,882
29240,1051,883
29245,1040,873
29250,1047,870
29255,1039,866
29260,1031,875
29265,1034,872
29270,1029,866
29275,1019,862
29280,1013,863
29285,1002,865
29290,997,855
29295,986,859
29300,989,864
29305,981,862
29310,967,858
29315,961,858
29320,952,851
29325,947,853
29330,931,851
29335,928,850
29340,906,849
29345,904,842
29350,897,845
29355,894,838
29360,884,836
29365,874,836
29370,857,833
29375,845,828
29380,846,824
29385,830,822
29390,824,820
29395,823,818
29400,808,812
29405,802,806
29410,798,799
29415,791,798
29420,781,795
29425,774,790
29430,762,786
29435,764,780
29440,757,768
29445,765,765
29450,749,758
29455,755,757
29460,748,750
29465,741,745
29470,739,739
29475,750,734
29480,745,724
29485,750,718
29490,749,714
29495,749,706
29500,756,707
29505,754,697
29510,762,689
29515,771,690
29520,773,680
29525,790,676
29530,799,669
29535,805,666
29540,802,664
29545,822,657
29550,828,656
29555,829,647
29560,843,645
29565,862,639
29570,869,639
29575,889,637
29580,895,638
29585,909,633
29590,922,634
29595,924,629
29600,940,633
29605,958,629
29610,965,639
29615,975,638
29620,992,632
29625,1008,642
29630,1021,643
29635,1018,647
29640,1033,649
29645,1046,653
29650,1058,658
29655,1076,663
29660,1078,666
29665,1094,676
29670,1092,683
29675,1107,685
29680,1121,695
29685,1138,696
29690,1147,706
29695,1142,716
29700,1143,722
29705,1159,726
29710,1156,738
29715,1168,751
29720,1167,756
29725,1171,765
29730,1191,771
29735,1183,778
29740,1172,785
29745,1189,793
29750,1187,801
29755,1192,806
29760,1181,816
29765,1176,826
29770,1186,839
29775,1187,841
29780,1175,842
29785,1180,858
29790,1183,859
29795,1172,865
29800,1177,870
29805,1169,877
29810,1173,888
29815,1164,889
29820,1169,895
29825,1161,899
29830,1157,897
29835,1161,909
29840,1161,913
29845,1151,912
29850,1145,911
29855,1147,915
29860,1140,922
29865,1137,924
29870,1136,919
29875,1131,921
29880,1122,924
29885,1116,922
29890,1123,924
29895,1118,920
29900,1109,927
29905,1109,926
29910,1115,917
29915,1113,919
29920,1107,918
29925,1107,920
29930,1096,914
29935,1107,912
29940,1088,912
29945,1090,908
29950,1094,909
29955,1089,903
29960,1087,907
29965,1085,908
29970,1079,897
29975,1080,896
29980,1081,891
29985,1084,894
29990,1078,891
29995,1069,891
30000,1068,888
30005,1075,885
30010,1054,880
30015,1057,882
30020,1052,879
30025,1049,869
30030,1039,875
30035,1037,870
30040,1031,869
30045,1029,868
30050,1031,868
30055,1017,866
30060,1009,863
30065,1001,861
30070,997,864
30075,996,857
30080,987,858
30085,975,854
30090,963,858
30095,959,861
30100,956,851
30105,942,853
30110,932,849
30115,930,847
30120,926,847
30125,919,845
30130,899,839
30135,893,840
30140,881,839
30145,884,831
30150,862,829
30155,852,825
30160,843,826
30165,838,819
30170,825,818
30175,818,814
30180,812,810
30185,801,805
30190,802,804
30195,797,798
30200,778,796
30205,780,789
30210,770,782
30215,765,777
30220,763,776
30225,742,767
30230,758,760
30235,746,756
30240,747,749
30245,741,744
30250,746,737
30255,740,734
30260,746,726
30265,748,720
30270,758,712
30275,760,711
30280,766,700
30285,768,704
30290,765,691
30295,774,687
30300,778,681
30305,781,684
30310,799,671
30315,805,665
30320,813,663
30325,817,661
30330,829,656
30335,831,650
30340,840,645
30345,857,645
30350,867,641
30355,883,638
30360,890,635
30365,914,631
30370,917,634
30375,926,638
30380,944,632
30385,956,637
30390,964,632
30395,980,639
30400,983,638
30405,1001,639
30410,1014,644
30415,1026,649
30420,1043,656
30425,1046,655
30430,1061,662
30435,1072,667
30440,1082,667
30445,1087,676
30450,1103,680
30455,1111,689
30460,1118,688
30465,1134,701
30470,1133,706
30475,1147,714
30480,1142,725
30485,1155,736
30490,1154,739
30495,1165,742
30500,1171,750
30505,1174,764
30510,1180,771
30515,1174,782
30520,1173,791
30525,1192,792
30530,1189,804
30535,1188,812
30540,1190,820
30545,1193,828
30550,1192,832
30555,1195,842
30560,1191,850
30565,1182,859
30570,1178,862
30575,1181,870
30580,1180,872
30585,1168,885
30590,1167,880
30595,1172,892
30600,1173,893
30605,1156,896
30610,1159,903
30615,1162,904
30620,1155,908
30625,1153,909
30630,1143,914
30635,1142,919
30640,1139,921
30645,1138,923
30650,1126,920
30655,1132,919
30660,1127,921
30665,1125,929
30670,1126,923
30675,1114,919
30680,1109,919
30685,1111,923
30690,1111,922
30695,1112,915
30700,1103,917
30705,1105,918
30710,1099,916
30715,1098,913
30720,1098,909
30725,1087,910
30730,1097,908
30735,1085,909
30740,1087,904
30745,1086,904
30750,1073,896
30755,1074,898
30760,1078,890
30765,1078,893
30770,1075,890
30775,1075,887
30780,1062,887
30785,1066,886
30790,1067,884
30795,1055,879
30800,1057,876
30805,1045,881
30810,1043,874
30815,1037,871
30820,1040,871
30825,1033,870
30830,1023,869
30835,1019,871
30840,1009,870
30845,998,862
30850,999,862
30855,993,860
30860,989,857
30865,970,861
30870,971,856
30875,970,852
30880,950,852
30885,940,850
30890,936,849
30895,930,844
30900,920,847
30905,906,841
30910,902,839
30915,893,843
30920,884,837
30925,872,836
30930,867,831
30935,849,828
30940,847,827
30945,835,823
30950,827,824
30955,817,810
30960,814,811
30965,799,806
30970,809,802
30975,788,793
30980,784,789
30985,773,789
30990,776,780
30995,757,782
31000,764,772
31005,769,766
31010,744,762
31015,749,752
31020,755,749
31025,750,744
31030,753,734
31035,750,735
31040,756,722
31045,746,721
31050,752,715
31055,755,707
31060,755,699
31065,764,697
31070,762,689
31075,780,687
31080,776,678
31085,783,678
31090,795,669
31095,811,668
31100,799,663
31105,817,655
31110,822,648
31115,839,650
31120,844,650
31125,859,640
31130,864,641
31135,881,641
31140,894,641
31145,902,636
31150,907,634
31155,926,637
31160,943,633
31165,950,635
31170,957,635
31175,980,635
31180,979,640
31185,997,637
31190,1006,640
31195,1032,647
31200,1048,652
31205,1054,651
31210,1067,662
31215,1082,661
31220,1087,663
31225,1091,676
31230,1101,679
31235,1117,689
31240,1123,694
31245,1120,701
31250,1131,705
31255,1134,716
31260,1146,725
31265,1155,733
31270,1163,737
31275,1172,746
31280,1170,754
31285,1177,758
31290,1185,769
31295,1196,784
31300,1182,787
31305,1184,793
31310,1195,805
31315,1191,816
31320,1186,821
31325,1190,830
31330,1186,835
31335,1189,841
31340,1187,848
31345,1179,858
31350,1177,861
31355,1185,866
31360,1181,874
31365,1177,884
31370,1168,896
31375,1173,887
31380,1171,895
31385,1165,904
31390,1156,900
31395,1162,910
31400,1154,909
31405,1153,909
31410,1148,912
31415,1142,914
31420,1137,916
31425,1141,917
31430,1136,919
31435,1128,919
31440,1122,920
31445,1123,923
31450,1121,922
31455,1124,923
31460,1108,921
31465,1105,921
31470,1104,923
31475,1113,922
31480,1095,922
31485,1109,915
31490,1106,918
31495,1092,911
31500,1098,908
31505,1086,912
31510,1098,907
31515,1090,904
31520,1089,900
31525,1085,904
31530,1083,900
31535,1078,898
31540,1075,893
31545,1073,893
31550,1073,891
31555,1069,887
31560,1070,886
31565,1066,885
31570,1069,884
31575,1064,876
31580,1059,879
31585,1044,873
31590,1047,878
31595,1044,871
31600,1040,872
31605,1031,866
31610,1027,868
31615,1022,862
31620,1006,863
31625,1002,862
31630,998,857
31635,996,868
31640,991,859
31645,980,856
31650,975,857
31655,966,856
31660,949,850
31665,939,854
31670,936,849
31675,938,846
31680,913,845
31685,916,845
31690,898,847
31695,895,845
31700,886,839
31705,872,833
31710,859,832
31715,851,829
31720,843,829
31725,831,820
31730,830,821
31735,816,816
31740,808,813
31745,809,811
31750,805,804
31755,792,801
31760,776,790
31765,794,792
31770,772,779
31775,781,775
31780,757,770
31785,773,761
31790,750,763
31795,756,761
31800,755,751
31805,761,747
31810,744,737
31815,749,734
31820,752,726
31825,748,715
31830,757,715
31835,756,713
31840,751,704
31845,761,698
31850,776,692
31855,777,681
31860,778,677
31865,782,671
31870,788,669
31875,802,667
31880,813,661
31885,821,660
31890,824,653
31895,825,646
31900,846,648
31905,858,643
31910,879,639
31915,883,639
31920,892,639
31925,900,639
31930,919,632
31935,922,630
31940,943,636
31945,941,634
31950,970,634
31955,976,634
31960,985,635
31965,991,639
31970,1023,642
31975,1025,648
31980,1030,647
31985,1051,661
31990,1053,656
31995,1054,669
32000,1083,669
32005,1094,675
32009,1095,678
32015,1114,689
32020,1109,701
32025,1131,701
32030,1139,705
32034,1143,718
32040,1150,725
32045,1151,732
32049,1161,741
32055,1161,750
32060,1167,753
32064,1170,764
32070,1173,770
32075,1180,777
32080,1185,789
32085,1182,800
32090,1190,800
32095,1181,817
32100,1194,821
32104,1183,828
32110,1194,829
32115,1182,835
32119,1191,845
32125,1187,853
32130,1181,862
32134,1170,868
32140,1173,874
32145,1183,882
32150,1173,883
32155,1175,885
32159,1163,892
32165,1160,897
32170,1158,903
32174,1164,909
32180,1153,906
32185,1156,913
32189,1141,916
32195,1143,918
32200,1139,919
32205,1149,918
32210,1135,921
32215,1134,926
32220,1129,924
32225,1120,924
32229,1118,923
32235,1118,921
32240,1116,919
32244,1111,920
32250,1104,918
32255,1109,929
32259,1107,916
32265,1105,916
32270,1097,912
32275,1099,918
32280,1101,913
32284,1100,912
32290,1088,907
32295,1084,904
32299,1089,903
32305,1076,902
32310,1090,901
32314,1084,897
32320,1074,891
32325,1080,890
32330,1076,888
32335,1068,887
32340,1061,887
32345,1061,883
32350,1059,882
32354,1055,876
32360,1044,875
32365,1050,868
32369,1051,874
32375,1044,869
32380,1031,865
32384,1037,866
32390,1026,869
32395,1022,865
32400,1021,860
32405,1012,863
32409,986,861
32415,991,858
32420,981,859
32424,981,856
32430,962,858
32435,961,856
32439,956,856
32445,945,854
32450,934,845
32455,930,848
32460,925,845
32465,916,844
32470,896,840
32475,901,837
32479,883,835
32485,886,834
32490,868,834
32494,858,830
32500,842,824
32505,841,822
32509,832,816
32515,825,814
32520,803,810
32525,819,811
32530,801,798
32534,785,795
32540,778,793
32545,774,786
32549,783,782
32555,769,778
32560,759,779
32564,758,761
32570,762,760
32575,757,753
32580,753,754
32585,753,745
32590,748,736
32595,746,734
32600,748,729
32604,751,727
32610,752,718
32615,760,710
32619,765,706
32625,768,693
32630,768,692
32634,768,687
32640,775,680
32645,777,674
32650,796,672
32655,796,665
32659,806,664
32665,811,655
32670,820,657
32674,840,645
32680,851,650
32685,854,643
32689,867,641
32695,865,637
32700,883,636
32705,909,630
32710,916,630
32715,919,638
32720,941,630
32725,952,632
32729,955,637
32735,977,636
32740,990,644
32744,1014,639
32750,1015,650
32755,1025,647
32759,1029,646
32765,1044,657
32770,1060,660
32775,1073,664
32780,1066,672
32785,1103,671
32790,1101,677
32795,1111,687
32800,1115,697
32805,1129,704
32810,1122,707
32815,1142,711
32820,1149,723
32825,1156,728
32830,1161,736
32835,1158,746
32840,1170,763
32845,1179,756
32850,1171,776
32855,1178,785
32860,1180,795
32865,1184,795
32870,1193,801
32875,1188,815
32880,1189,818
32885,1196,824
32890,1193,830
32895,1191,845
32900,1192,850
32905,1192,860
32910,1190,863
32915,1180,864
32920,1178,872
32925,1181,875
32930,1179,889
32935,1174,892
32940,1172,891
32945,1157,901
32950,1171,901
32955,1155,910
32960,1150,910
32965,1155,914
32970,1139,911
32975,1149,916
32980,1147,920
32985,1143,918
32990,1137,924
32995,1139,920
33000,1127,928
33005,1125,920
33010,1123,923
33015,1116,924
33020,1122,920
33025,1120,922
33030,1115,925
33035,1115,920
33040,1105,916
33045,1097,923
33050,1102,916
33055,1111,923
33060,1082,912
33065,1099,910
33070,1091,909
33075,1093,910
33080,1084,901
33085,1082,894
33090,1077,901
33095,1088,899
33100,1086,888
33105,1084,894
33110,1076,892
33115,1068,885
33120,1079,883
33125,1066,890
33130,1060,881
33135,1050,882
33140,1050,875
33145,1049,871
33150,1047,872
33155,1040,867
33160,1033,871
33165,1026,867
33170,1006,876
33175,1018,866
33180,1019,863
33185,999,864
33190,1000,862
33195,995,865
33200,983,861
33205,978,859
33210,968,852
33215,967,851
33220,959,851
33225,952,853
33230,932,851
33235,926,848
33240,907,844
33245,912,846
33250,899,836
33255,890,839
33260,879,833
33265,875,840
33270,860,836
33275,852,826
33280,842,823
33285,837,820
33290,830,822
33295,818,810
33300,808,811
33305,797,808
33310,799,806
33315,788,796
33320,786,794
33325,773,791
33330,774,782
33335,762,775
33340,763,777
33345,747,769
33350,744,764
33355,757,752
33360,753,750
33365,746,742
33370,742,739
33375,750,733
33380,747,729
33385,753,723
33390,753,716
33395,757,711
33400,753,705
33405,760,694
33410,763,693
33415,781,682
33420,772,680
33425,787,670
33430,787,667
33435,803,662
33440,807,653
33445,822,655
33450,815,654
33455,835,646
33460,849,642
33465,863,637
33470,862,639
33475,880,640
33480,890,638
33485,907,636
33490,917,631
33495,919,636
33500,946,631
33505,952,640
33510,959,636
33515,988,635
33520,990,639
33525,1001,639
33530,1019,641
33535,1020,645
33540,1026,652
33545,1053,656
33550,1059,659
33555,1079,662
33560,1088,668
33565,1093,676
33570,1103,687
33575,1115,685
33580,1121,693
33585,1124,707
33590,1128,711
33595,1141,722
33600,1144,720
33605,1152,723
33610,1158,734
33615,1154,749
33620,1163,752
33625,1177,764
33630,1183,768
33635,1175,777
33640,1183,785
33645,1174,797
33650,1190,806
33655,1190,811
33660,1195,818
33665,1183,829
33670,1192,832
33675,1184,837
33680,1188,846
33685,1183,854
33690,1172,863
33695,1177,870
33700,1181,873
33705,1181,877
33710,1179,883
33715,1170,891
33720,1165,893
33725,1167,899
33730,1169,905
33735,1156,901
33740,1156,905
33745,1157,909
33750,1142,910
33755,1149,917
33760,1145,920
33765,1139,920
33770,1136,922
33775,1132,919
33780,1129,921
33785,1131,919
33790,1117,913
33795,1118,921
33800,1120,927
33805,1120,919
33810,1115,920
33815,1104,924
33820,1103,921
33825,1103,920
33830,1099,914
33835,1099,916
33840,1097,907
33845,1098,909
33850,1095,906
33855,1091,907
33860,1082,899
33865,1090,902
33870,1081,898
33875,1079,897
33880,1076,890
33885,1076,888
33890,1079,893
33895,1061,888
33900,1072,886
33905,1066,880
33910,1062,880
33915,1058,878
33920,1056,879
33925,1047,877
33930,1045,873
33935,1040,873
33940,1032,871
33945,1030,870
33950,1026,868
33955,1010,874
33960,1011,862
33965,1001,864
33970,1001,866
33975,992,861
33980,983,862
33985,978,854
33990,964,857
33995,955,859
34000,949,850
34005,941,850
34010,931,846
34015,937,850
34020,910,848
34025,900,844
34030,891,843
34035,891,838
34040,881,839
34045,870,839
34050,863,831
34055,853,827
34060,841,826
34065,838,823
34070,831,815
34075,824,817
34080,819,814
34085,797,805
34090,808,802
34095,781,799
34100,782,792
34105,768,792
34110,777,782
34115,771,775
34120,767,766
34125,753,764
34130,761,762
34135,756,760
34140,740,752
34145,747,745
34150,747,742
34155,744,738
34160,756,722
34165,758,720
34170,748,713
34175,755,709
34180,754,704
34185,763,698
34190,769,698
34195,776,685
34200,778,675
34205,784,673
34210,792,669
34215,794,662
34220,811,661
34225,811,661
34230,822,651
34235,837,648
34240,842,648
34245,858,643
34250,865,641
34255,870,634
34260,889,637
34265,904,640
34270,910,632
34275,926,635
34280,931,634
34285,941,634
34290,963,633
34295,976,641
34300,982,639
34305,1009,640
34310,1015,641
34315,1018,648
34320,1037,655
34325,1052,653
34330,1057,660
34335,1073,665
34340,1079,671
34345,1101,677
34350,1092,674
34355,1107,689
34360,1128,696
34365,1129,700
34370,1137,710
34375,1143,712
34380,1153,724
34385,1141,734
34390,1162,741
34395,1167,747
34400,1169,757
34405,1179,764
34410,1175,767
34415,1178,780
34420,1179,784
34425,1187,793
34430,1173,804
34435,1189,812
34440,1183,825
34445,1192,824
34450,1190,838
34455,1180,838
34460,1186,842
34465,1187,854
34470,1176,858
34475,1187,868
34480,1174,874
34485,1178,880
34490,1185,881
34495,1167,892
34500,1170,895
34505,1166,891
34510,1164,897
34515,1159,909
34520,1160,907
34525,1151,914
34530,1143,915
34535,1138,919
34540,1137,917
34545,1140,914
34550,1139,925
34555,1135,921
34560,1126,928
34565,1121,921
34570,1131,926
34575,1116,925
34580,1117,916
34585,1113,919
34590,1108,924
34595,1109,922
34600,1112,920
34605,1105,916
34610,1106,909
34615,1101,907
34620,1092,912
34625,1096,910
34630,1086,906
34635,1090,907
34640,1090,906
34645,1084,900
34650,1091,903
34655,1087,899
34660,1080,892
34665,1074,891
34670,1075,886
34675,1076,880
34680,1076,884
34685,1074,881
34690,1063,884
34695,1055,881
34700,1051,877
34705,1054,880
34710,1047,870
34715,1040,871
34720,1043,873
34725,1023,874
34730,1014,869
34735,1022,868
34740,1014,864
34745,1007,861
34750,1000,863
34755,994,860
34760,980,857
34765,983,854
34770,968,858
34775,957,850
34780,951,852
34785,944,850
34790,944,850
34795,920,844
34800,916,850
34805,903,843
34810,900,839
34815,886,839
34820,874,832
34825,874,833
34830,864,832
34835,851,826
34840,840,830
34845,833,828
34850,821,822
34855,820,818
34860,807,813
34865,805,808
34870,798,806
34875,798,800
34880,771,791
34885,772,789
34890,775,785
34895,764,781
34900,756,773
34905,764,768
34910,758,757
34915,758,755
34920,746,753
34925,744,741
34930,750,737
34935,748,732
34940,744,730
34945,749,722
34950,752,724
34955,752,710
34960,755,703
34965,768,695
34970,770,694
34975,767,682
34980,772,682
34985,784,677
34990,794,669
34995,799,667
35000,814,656
35005,814,659
35010,824,656
35015,826,651
35020,849,642
35025,853,642
35030,870,641
35035,876,635
35040,903,635
35045,903,633
35050,914,637
35055,932,633
35060,942,635
35065,962,638
35070,963,634
35075,972,636
35080,985,640
35085,996,642
35090,1012,640
35095,1023,654
35100,1043,652
35105,1049,654
35110,1053,658
35115,1064,667
35120,1079,668
35125,1093,673
35130,1100,685
35135,1107,680
35140,1124,688
35145,1121,697
35150,1137,712
35155,1142,714
35160,1156,722
35165,1157,731
35170,1160,747
35175,1176,747
35180,1162,751
35185,1183,765
35190,1174,761
35195,1182,778
35200,1187,784
35205,1190,795
35210,1180,797
35215,1193,810
35220,1186,817
35225,1182,827
35230,1181,825
35235,1197,842
35240,1184,846
35245,1192,857
35250,1185,865
35255,1184,871
35260,1185,867
35265,1179,878
35270,1181,886
35275,1167,884
35280,1174,896
35285,1169,902
35290,1162,895
35295,1173,904
35300,1155,913
35305,1152,909
35310,1149,911
35315,1144,916
35320,1136,918
35325,1135,922
35330,1130,925
35335,1129,924
35340,1133,919
35345,1125,923
35350,1118,926
35355,1121,923
35360,1117,921
35365,1102,925
35370,1111,925
35375,1108,920
35380,1105,915
35385,1096,920
35390,1101,913
35395,1101,914
35400,1098,906
35405,1089,906
35410,1093,909
35415,1083,910
35420,1085,903
35425,1079,897
35430,1082,893
35435,1083,897
35440,1081,891
35445,1076,891
35450,1079,890
35455,1072,887
35460,1067,879
35465,1063,882
35470,1060,880
35475,1055,881
35480,1050,876
35485,1048,874
35490,1045,874
35495,1043,873
35500,1037,874
35505,1039,873
35510,1026,873
35515,1027,864
35520,1012,861
35525,1002,872
35530,1000,862
35535,1001,858
35540,990,853
35545,971,864
35550,968,852
35555,963,849
35560,959,853
35565,945,852
35570,940,850
35575,936,851
35580,913,848
35585,905,847
35590,903,840
35595,886,837
35600,888,838
35605,868,836
35610,873,832
35615,861,825
35620,853,823
35625,826,818
35630,845,818
35635,814,820
35640,808,813
35645,798,810
35650,795,799
35655,789,801
35660,778,793
35665,778,787
35670,774,784
35675,758,778
35680,760,778
35685,758,767
35690,757,763
35695,749,757
35700,744,750
35705,746,743
35710,746,737
35715,743,739
35720,748,725
35725,759,724
35730,750,715
35735,760,710
35740,759,705
35745,756,700
35750,769,698
35755,773,687
35760,777,682
35765,776,669
35770,794,669
35775,799,665
35780,807,663
35785,809,657
35790,832,650
35795,836,650
35800,846,643
35805,855,644
35810,871,641
35815,879,640
35820,890,635
35825,899,633
35830,909,636
35835,937,634
35840,937,639
35845,957,637
35850,971,632
35855,970,634
35860,998,640
35865,997,640
35870,1017,642
35875,1016,647
35880,1035,652
35885,1042,654
35890,1059,662
35895,1068,662
35900,1071,666
35905,1076,679
35910,1106,683
35915,1108,684
35920,1122,692
35925,1136,702
35930,1132,708
35935,1146,714
35940,1151,723
35945,1157,733
35950,1157,737
35955,1168,743
35960,1175,752
35965,1179,764
35970,1178,773
35975,1180,775
35980,1183,786
35985,1180,795
35990,1178,802
35995,1189,812
36000,1187,816
36005,1187,826
36010,1188,836
36015,1178,843
36020,1194,850
36025,1187,853
36030,1183,859
36035,1182,869
36040,1187,873
36045,1174,877
36050,1172,885
36055,1170,891
36060,1177,890
36065,1161,900
36070,1165,903
36075,1157,905
36080,1152,913
36085,1142,913
36090,1152,912
36095,1148,917
36100,1138,920
36105,1141,922
36110,1129,924
36115,1134,926
36120,1123,921
36125,1127,924
36130,1118,920
36135,1120,923
36140,1112,919
36145,1112,924
36150,1113,926
36155,1108,921
36160,1111,913
36165,1103,918
36170,1102,917
36175,1094,914
36180,1095,910
36185,1086,908
36190,1083,907
36195,1088,907
36200,1084,904
36205,1080,897
36210,1080,902
36215,1076,894
36220,1071,896
36225,1072,894
36230,1076,886
36235,1078,891
36240,1069,888
36245,1055,887
36250,1063,881
36255,1055,884
36260,1061,881
36265,1039,875
36270,1054,870
36275,1035,875
36280,1037,873
36285,1030,869
36290,1027,875
36295,1019,863
36300,1014,861
36305,1002,863
36310,1011,861
36315,994,861
36320,986,855
36325,975,855
36330,969,852
36335,968,854
36340,951,852
36345,952,848
36350,936,847
36355,936,846
36360,927,843
36365,908,842
36370,898,843
36375,889,845
36380,882,842
36385,870,832
36390,858,829
36395,860,825
36400,854,829
36405,836,821
36410,835,815
36415,825,809
36420,818,814
36425,808,809
36430,789,803
36435,797,796
36440,784,791
36445,768,790
36450,770,786
36455,772,778
36460,764,779
36465,757,767
36470,750,759
36475,760,756
36480,748,753
36485,745,740
36490,744,740
36495,744,734
36500,742,729
36505,755,722
36510,740,712
36515,760,709
36520,760,702
36525,757,698
36530,769,685
36535,774,684
36540,779,683
36545,788,679
36550,784,667
36555,793,665
36560,812,661
36565,823,654
36570,831,656
36575,841,651
36580,846,647
36585,858,647
36590,865,636
36595,880,638
36600,891,634
36605,904,637
36610,911,631
36615,929,634
36620,946,632
36625,956,631
36630,963,639
36635,980,635
36640,994,637
36645,1003,638
36650,1019,646
36655,1024,648
36660,1033,655
36665,1057,657
36670,1054,654
36675,1075,665
36680,1081,674
36685,1096,676
36690,1095,682
36695,1113,687
36700,1118,692
36705,1126,699
36710,1134,707
36715,1145,715
36720,1151,723
36725,1154,731
36730,1152,739
36735,1160,750
36740,1163,749
36745,1172,757
36750,1180,774
36755,1182,779
36760,1180,786
36765,1188,794
36770,1185,807
36775,1190,807
36780,1185,814
36785,1184,823
36790,1186,831
36795,1194,840
36800,1183,847
36805,1179,857
36810,1176,855
36815,1179,864
36820,1174,870
36825,1176,873
36830,1176,881
36835,1185,893
36840,1174,897
36845,1164,896
36850,1163,901
36855,1157,906
36860,1148,912
36865,1147,914
36870,1146,914
36875,1143,923
36880,1146,917
36885,1127,920
36890,1135,919
36895,1133,928
36900,1126,917
36905,1134,922
36910,1120,925
36915,1120,924
36920,1113,924
36925,1114,925
36930,1114,920
36935,1104,918
36940,1102,914
36945,1102,912
36950,1104,916
36955,1091,916
36960,1098,915
36965,1088,911
36970,1100,911
36975,1091,906
36980,1092,902
36985,1084,904
36990,1084,899
36995,1078,897
37000,1074,889
37005,1072,895
37010,1081,886
37015,1072,891
37020,1075,884
37025,1068,884
37030,1065,884
37035,1056,880
37040,1053,880
37045,1050,874
37050,1043,874
37055,1039,876
37060,1041,871
37065,1037,866
37070,1023,872
37075,1019,863
37080,1008,862
37085,1001,864
37090,1008,860
37095,994,856
37100,978,861
37105,982,856
37110,972,855
37115,971,852
37120,949,852
37125,941,850
37130,934,845
37135,928,846
37140,921,844
37145,911,839
37150,902,833
37155,893,841
37160,878,831
37165,871,835
37170,863,832
37175,854,826
37180,839,823
37185,835,817
37190,835,818
37195,814,820
37200,822,809
37205,795,809
37210,797,803
37215,797,798
37220,792,792
37225,779,793
37230,766,788
37235,761,779
37240,759,771
37245,759,770
37250,758,766
37255,758,762
37260,748,750
37265,743,742
37270,748,739
37275,738,737
37280,749,729
37285,758,713
37290,757,718
37295,755,708
37300,760,702
37305,757,701
37310,772,693
37315,768,681
37320,771,678
37325,779,682
37330,792,664
37335,793,662
37340,807,659
37345,814,651
37350,824,658
37355,840,647
37360,842,647
37365,847,645
37370,870,635
37375,877,635
37380,902,633
37385,893,644
37390,910,634
37395,930,632
37400,945,631
37405,944,629
37410,962,640
37415,982,631
37420,988,638
37425,995,638
37430,1006,647
37435,1026,643
37440,1044,651
37445,1049,658
37450,1058,662
37455,1074,664
37460,1073,671
37465,1093,677
37470,1099,683
37475,1114,689
37480,1118,691
37485,1134,700
37490,1129,707
37495,1134,709
37500,1152,723
37505,1161,727
37510,1156,737
37515,1163,745
37520,1175,752
37525,1167,762
37530,1173,770
37535,1183,779
37540,1189,789
37545,1178,797
37550,1188,803
37555,1187,803
37560,1184,825
37565,1196,828
37570,1194,833
37575,1189,842
37580,1191,840
37585,1178,853
37590,1180,855
37595,1180,864
37600,1179,869
37605,1184,882
37610,1162,889
37615,1163,892
37620,1173,895
37625,1162,900
37630,1160,902
37635,1164,903
37640,1155,905
37645,1156,911
37650,1148,914
37655,1139,915
37660,1139,918
37665,1135,923
37670,1137,923
37675,1135,926
37680,1134,920
37685,1127,923
37690,1120,921
37695,1132,919
37700,1119,918
37705,1107,923
37710,1112,926
37715,1114,916
37720,1104,921
37725,1096,917
37730,1098,914
37735,1099,912
37740,1095,907
37745,1093,912
37750,1098,908
37755,1082,905
37760,1088,900
37765,1086,905
37770,1081,904
37775,1086,901
37780,1080,895
37785,1076,893
37790,1067,891
37795,1069,887
37800,1070,881
37805,1063,883
37810,1065,880
37815,1055,881
37820,1051,881
37825,1050,875
37830,1046,875
37835,1046,871
37840,1030,869
37845,1035,869
37850,1026,866
37855,1017,870
37860,1002,863
37865,1009,870
37870,1000,861
37875,996,855
37880,983,859
37885,981,860
37890,973,852
37895,957,853
37900,954,854
37905,947,850
37910,937,848
37915,927,850
37920,922,839
37925,904,842
37930,906,843
37935,892,842
37940,889,837
37945,884,832
37950,858,838
37955,856,832
37960,838,828
37965,836,820
37970,830,810
37975,827,814
37980,819,808
37985,810,808
37990,800,805
37995,802,798
38000,784,795
38005,787,788
38010,778,790
38015,774,776
38020,764,771
38025,762,766
38030,746,766
38035,749,756
38040,750,752
38045,745,749
38050,744,747
38055,752,732
38060,753,728
38065,738,725
38070,761,714
38075,754,711
38080,762,703
38085,760,697
38090,763,691
38095,770,694
38100,778,679
38105,792,669
38110,800,675
38115,800,662
38120,801,654
38125,818,657
38130,822,655
38135,831,648
38140,853,648
38145,859,643
38150,864,641
38155,873,641
38160,886,640
38165,900,632
38170,926,630
38175,930,635
38180,945,633
38185,949,639
38190,973,636
38195,973,637
38200,990,639
38205,997,641
38210,1008,643
38215,1023,647
38220,1034,646
38225,1052,657
38230,1054,660
38235,1079,658
38240,1083,671
38245,1093,672
38250,1099,673
38255,1114,681
38260,1119,691
38265,1130,699
38270,1133,709
38275,1138,711
38280,1141,725
38285,1158,727
38290,1165,739
38295,1163,748
38300,1171,752
38305,1170,758
38310,1177,768
38315,1176,782
38320,1180,785
38325,1188,788
38330,1181,799
38335,1199,813
38340,1188,816
38345,1190,823
38350,1186,834
38355,1191,840
38360,1180,850
38365,1191,853
38370,1179,861
38375,1178,867
38380,1175,870
38385,1175,882
38390,1167,882
38395,1179,885
38400,1169,895
38405,1171,897
38410,1161,904
38415,1158,912
38420,1151,910
38425,1153,907
38430,1146,918
38435,1142,917
38440,1136,914
38445,1126,925
38450,1133,919
38455,1136,920
38460,1124,920
38465,1132,921
38470,1120,920
38475,1122,922
38480,1112,928
38485,1110,920
38490,1112,919
38495,1113,923
38500,1111,921
38505,1103,915
38510,1103,918
38515,1107,915
38520,1098,909
38525,1095,906
38530,1096,907
38535,1094,910
38540,1095,903
38545,1089,897
38550,1085,897
38555,1080,891
38560,1074,891
38565,1088,895
38570,1074,887
38575,1071,890
38580,1070,887
38585,1062,887
38590,1069,881
38595,1056,884
38600,1050,875
38605,1056,875
38610,1050,882
38615,1039,869
38620,1036,869
38625,1024,872
38630,1027,872
38635,1018,871
38640,1012,864
38645,1006,858
38650,998,866
38655,993,855
38660,986,856
38665,979,862
38670,971,856
38675,958,855
38680,950,851
38685,941,853
38690,930,851
38695,922,846
38700,918,847
38705,905,841
38710,903,840
38715,888,840
38720,882,835
38725,874,830
38730,858,829
38735,855,830
38740,837,824
38745,843,819
38750,828,817
38755,827,815
38760,811,810
38765,808,799
38770,801,803
38775,788,804
38780,782,791
38785,786,789
38790,774,782
38795,772,783
38800,767,775
38805,752,763
38810,752,763
38815,755,759
38820,744,745
38825,748,744
38830,746,738
38835,746,737
38840,746,730
38845,747,718
38850,747,713
38855,753,710
38860,759,705
38865,764,692
38870,760,691
38875,769,692
38880,780,680
38885,792,675
38890,797,679
38895,796,667
38900,800,660
38905,816,657
38910,815,652
38915,838,644
38920,843,642
38925,855,642
38930,863,640
38935,877,638
38940,893,640
38945,901,633
38950,917,636
38955,934,628
38960,936,626
38965,948,635
38970,964,639
38975,973,638
38980,984,642
38985,999,641
38990,1014,647
38995,1019,642
39000,1032,646
39005,1051,646
39010,1060,658
39015,1064,667
39020,1073,669
39025,1098,677
39030,1094,679
39035,1107,686
39040,1116,691
39045,1126,696
39050,1135,706
39055,1137,711
39060,1157,722
39065,1150,729
39070,1154,738
39075,1156,748
39080,1181,752
39085,1170,763
39090,1172,773
39095,1174,777
39100,1184,794
39105,1188,795
39110,1191,804
39115,1192,809
39120,1200,816
39125,1191,830
39130,1184,831
39135,1188,839
39140,1188,851
39145,1192,851
39150,1182,863
39155,1175,870
39160,1181,874
39165,1179,880
39170,1168,882
39175,1167,884
39180,1166,890
39185,1168,901
39190,1155,904
39195,1156,907
39200,1155,906
39205,1153,911
39210,1145,910
39215,1142,920
39220,1137,917
39225,1131,925
39230,1138,924
39235,1129,925
39240,1133,923
39245,1123,923
39250,1117,921
39255,1117,926
39260,1113,923
39265,1106,922
39270,1111,924
39275,1113,925
39280,1107,915
39285,1101,918
39290,1104,918
39295,1093,909
39300,1101,914
39305,1092,911
39310,1090,906
39315,1090,905
39320,1091,904
39325,1080,908
39330,1081,901
39335,1087,894
39340,1080,891
39345,1078,888
39350,1087,895
39355,1064,888
39360,1065,891
39365,1071,886
39370,1056,885
39375,1061,879
39380,1054,879
39385,1047,880
39390,1044,874
39395,1039,872
39400,1036,871
39405,1035,875
39410,1029,867
39415,1016,863
39420,1021,864
39425,1005,859
39430,999,861
39435,992,856
39440,983,859
39445,976,856
39450,970,852
39455,968,854
39460,959,853
39465,947,851
39470,938,850
39475,931,847
39480,913,847
39485,905,847
39490,898,844
39495,884,842
39500,889,841
39505,871,833
39510,870,832
39515,859,829
39520,841,824
39525,834,825
39530,831,821
39535,815,813
39540,812,811
39545,798,806
39550,795,804
39555,791,796
39560,782,796
39565,771,788
39570,762,783
39575,772,772
39580,758,769
39585,763,769
39590,757,764
39595,752,752
39600,748,747
39605,753,750
39610,748,745
39615,738,737
39620,748,727
39625,746,719
39630,749,711
39635,753,710
39640,761,706
39645,760,695
39650,772,695
39655,776,682
39660,778,679
39665,784,676
39670,791,670
39675,799,671
39680,801,659
39685,818,656
39690,829,653
39695,839,648
39700,853,643
39705,853,646
39710,866,643
39715,869,642
39720,887,640
39725,902,629
39730,913,634
39735,922,634
39740,940,629
39745,956,630
39750,960,639
39755,968,633
39760,990,645
39765,1010,643
39770,1019,644
39775,1022,647
39780,1034,652
39785,1049,654
39790,1060,658
39795,1068,665
39800,1077,674
39805,1089,673
39810,1101,677
39815,1106,687
39820,1121,694
39825,1121,699
39830,1138,710
39835,1142,715
39840,1145,717
39845,1152,733
39850,1163,740
39855,1164,753
39860,1177,755
39865,1168,762
39870,1178,765
39875,1185,775
39880,1187,785
39885,1184,795
39890,1182,803
39895,1188,808
39900,1183,817
39905,1193,822
39910,1195,830
39915,1184,847
39920,1182,844
39925,1187,860
39930,1190,862
39935,1186,864
39940,1178,870
39945,1181,880
39950,1176,888
39955,1167,883
39960,1164,888
39965,1167,891
39970,1176,899
39975,1162,907
39980,1155,905
39985,1151,914
39990,1151,915
39995,1141,925
40000,1145,924
40005,1135,917
40010,1137,924
40015,1132,924
40020,1127,921
40025,1129,924
40030,1118,925
40035,1119,925
40040,1115,924
40045,1117,922
40050,1114,919
40055,1114,917
40060,1109,920
40065,1119,918
40070,1098,916
40075,1092,917
40080,1101,910
40085,1097,910
40090,1098,909
40095,1088,907
40100,1091,904
40105,1079,901
40110,1089,887
40115,1081,899
40120,1077,890
40125,1070,891
40130,1063,892
40135,1068,890
40140,1080,888
40145,1067,885
40150,1069,880
40155,1057,881
40160,1061,877
40165,1052,873
40170,1047,873
40175,1030,871
40180,1046,871
40185,1031,865
40190,1023,871
40195,1024,863
40200,1007,867
40205,1011,868
40210,1001,860
40215,990,860
40220,990,853
40225,975,859
40230,974,857
40235,957,855
40240,951,852
40245,943,848
40250,931,846
40255,925,849
40260,918,844
40265,910,842
40270,908,838
40275,900,839
40280,883,835
40285,882,833
40290,866,837
40295,860,830
40300,855,824
40305,836,825
40310,831,817
40315,809,819
40320,809,815
40325,808,809
40330,804,799
40335,795,799
40340,793,798
40345,781,785
40350,767,782
40355,772,780
40360,775,773
40365,762,769
40370,751,765
40375,756,757
40380,762,751
40385,752,744
40390,750,738
40395,746,734
40400,745,733
40405,753,720
40410,752,714
40415,751,709
40420,753,701
40425,751,700
40430,766,688
40435,773,687
40440,783,679
40445,783,676
40450,792,666
40455,794,666
40460,811,664
40465,815,655
40470,827,647
40475,828,650
40480,839,647
40485,864,642
40490,865,634
40495,881,634
40500,894,640
40505,909,636
40510,913,633
40515,929,633
40520,936,630
40525,953,636
40530,966,634
40535,971,639
40540,980,636
40545,1011,642
40550,999,640
40555,1031,645
40560,1037,647
40565,1052,658
40570,1061,659
40575,1071,664
40580,1080,672
40585,1084,677
40590,1110,680
40595,1112,681
40600,1125,694
40605,1126,698
40610,1125,709
40615,1141,712
40620,1153,722
40625,1151,735
40630,1157,737
40635,1168,745
40640,1164,756
40645,1171,761
40650,1172,769
40655,1187,773
40660,1182,787
40665,1176,793
40670,1188,801
40675,1193,814
40680,1189,818
40685,1190,826
40690,1182,835
40695,1185,844
40700,1186,847
40705,1185,850
40710,1194,863
40715,1185,870
40720,1178,870
40725,1173,879
40730,1170,884
40735,1170,890
40740,1176,890
40745,1168,903
40750,1167,897
40755,1164,908
40760,1147,913
40765,1152,912
40770,1136,909
40775,1147,915
40780,1143,914
40785,1139,924
40790,1133,919
40795,1142,922
40800,1125,924
40805,1124,926
40810,1114,924
40815,1115,921
40820,1114,921
40825,1118,925
40830,1109,927
40835,1101,920
40840,1114,918
40845,1098,918
40850,1103,919
40855,1100,913
40860,1103,916
40865,1097,914
40870,1087,906
40875,1083,909
40880,1085,904
40885,1085,905
40890,1083,899
40895,1090,898
40900,1075,893
40905,1084,891
40910,1073,888
40915,1063,887
40920,1065,886
40925,1064,881
40930,1061,881
40935,1053,876
40940,1056,877
40945,1044,870
40950,1044,874
40955,1035,869
40960,1044,874
40965,1032,867
40970,1030,868
40975,1013,868
40980,1008,863
40985,1014,858
40990,996,864
40995,993,860
41000,979,859
41005,969,854
41010,965,850
41015,968,853
41020,959,854
41025,948,855
41030,942,851
41035,933,850
41040,912,848
41045,908,847
41050,903,846
41055,897,837
41060,882,841
41065,875,833
41070,863,830
41075,855,829
41080,846,828
41085,835,819
41090,826,818
41095,828,813
41100,811,806
41105,807,809
41110,801,807
41115,798,797
41120,783,791
41125,782,783
41130,774,783
41135,769,778
41140,767,769
41145,760,768
41150,756,758
41155,758,757
41160,757,749
41165,748,744
41170,743,739
41175,747,732
41180,739,729
41185,756,724
41190,756,713
41195,753,708
41200,757,698
41205,760,702
41210,770,686
41215,771,687
41220,768,686
41225,788,676
41230,789,670
41235,802,667
41240,802,660
41245,813,652
41250,824,656
41255,834,649
41260,853,646
41265,852,640
41270,863,642
41275,890,634
41280,889,638
41285,902,638
41290,912,635
41295,918,639
41300,945,632
41305,951,640
41310,966,637
41315,966,642
41320,991,642
41325,996,645
41330,1017,641
41335,1024,653
41340,1036,652
41345,1048,661
41350,1068,657
41355,1072,666
41360,1075,666
41365,1089,674
41370,1105,679
41375,1103,685
41380,1121,693
41385,1133,701
41390,1129,707
41395,1143,710
41400,1150,721
41405,1148,732
41410,1157,737
41415,1164,745
41420,1171,748
41425,1166,760
41430,1174,769
41435,1180,773
41440,1182,785
41445,1183,794
41450,1185,806
41455,1189,809
41460,1186,815
41465,1183,821
41470,1189,833
41475,1192,841
41480,1193,837
41485,1184,856
41490,1189,857
41495,1187,865
41500,1180,870
41505,1176,877
41510,1181,885
41515,1167,885
41520,1176,898
41525,1173,891
41530,1167,905
41535,1150,902
41540,1146,905
41545,1152,910
41550,1150,912
41555,1146,917
41560,1141,921
41565,1143,917
41570,1140,923
41575,1139,921
41580,1128,920
41585,1117,920
41590,1118,917
41595,1114,924
41600,1110,916
41605,1112,919
41610,1112,922
41615,1106,914
41620,1118,926
41625,1091,916
41630,1111,915
41635,1104,917
41640,1094,911
41645,1090,911
41650,1096,908
41655,1092,907
41660,1089,911
41665,1086,900
41670,1081,902
41675,1087,894
41680,1082,890
41685,1071,894
41690,1073,887
41695,1077,887
41700,1070,882
41705,1066,886
41710,1063,880
41715,1057,881
41720,1054,874
41725,1047,876
41730,1047,872
41735,1039,873
41740,1037,873
41745,1027,869
41750,1031,871
41755,1013,869
41760,1016,868
41765,1002,862
41770,1005,862
41775,990,862
41780,982,862
41785,981,857
41790,964,862
41795,961,857
41800,951,847
41805,936,857
41810,932,850
41815,923,850
41820,908,847
41825,907,843
41830,901,841
41835,895,838
41840,876,838
41845,878,833
41850,866,832
41855,853,828
41860,855,827
41865,845,822
41870,829,816
41875,825,817
41880,818,811
41885,808,805
41890,798,809
41895,784,795
41900,788,789
41905,786,789
41910,758,778
41915,776,777
