timestamp_ms,ir_finger,ir_toe
0,1050,704
5,1049,703
10,1056,711
15,1076,708
20,1078,712
25,1099,711
30,1093,720
35,1097,717
40,1118,709
45,1113,715
50,1128,726
55,1130,725
60,1134,730
65,1149,730
70,1158,730
75,1154,737
80,1150,738
85,1160,743
90,1174,738
95,1171,751
100,1179,752
105,1173,757
110,1175,761
115,1176,765
120,1191,768
125,1191,773
130,1190,777
135,1196,778
140,1185,788
145,1189,787
150,1193,791
155,1195,798
160,1187,793
165,1183,805
170,1176,811
175,1181,812
180,1180,813
185,1181,821
190,1173,825
195,1172,827
200,1179,827
205,1177,832
210,1177,838
215,1167,834
220,1162,843
225,1160,843
230,1160,845
235,1165,847
240,1143,856
245,1151,852
250,1148,857
255,1139,857
260,1142,860
265,1129,857
270,1125,859
275,1138,866
280,1132,868
285,1125,860
290,1131,869
295,1117,865
300,1117,867
305,1111,865
310,1114,875
315,1110,876
320,1111,872
325,1105,873
330,1095,868
335,1110,876
340,1100,872
345,1097,870
350,1104,869
355,1110,872
360,1085,865
365,1089,869
370,1093,866
375,1086,871
380,1088,868
385,1083,867
390,1082,863
395,1086,860
400,1082,863
405,1080,863
410,1064,859
415,1066,863
420,1063,855
425,1062,854
430,1066,858
435,1061,853
440,1063,853
445,1047,854
450,1049,856
455,1055,853
460,1051,847
465,1036,848
470,1031,847
475,1032,846
480,1026,846
485,1023,846
490,1017,841
495,1016,844
500,1017,846
505,1004,844
510,998,839
515,988,838
520,993,839
525,977,844
530,964,834
535,967,833
540,956,838
545,947,837
550,947,833
555,936,833
560,934,833
565,923,832
570,917,838
575,899,838
580,900,828
585,887,831
590,872,826
595,880,828
600,860,827
605,867,826
610,865,830
615,849,821
620,846,825
625,831,819
630,830,827
635,817,815
640,818,814
645,794,813
650,804,809
655,790,810
660,780,808
665,787,814
670,776,806
675,776,803
680,761,802
685,767,797
690,751,794
695,759,801
700,750,794
705,754,795
710,745,789
715,744,789
720,746,785
725,755,784
730,751,780
735,758,775
740,751,773
745,752,767
750,748,768
755,757,761
760,757,765
765,766,759
770,762,757
775,771,753
780,766,750
785,785,744
790,782,743
795,792,737
800,791,739
805,805,739
810,812,730
815,819,731
820,822,729
825,836,726
830,846,720
835,857,721
840,867,717
845,882,723
850,882,722
855,892,709
860,909,712
865,916,713
870,923,712
875,921,706
880,942,708
885,951,705
890,964,703
895,976,706
900,985,698
905,998,700
910,1001,702
915,1021,699
920,1025,704
925,1028,712
930,1041,704
935,1056,706
940,1072,704
945,1071,705
950,1081,705
955,1093,710
960,1099,715
965,1112,714
970,1116,717
975,1124,724
980,1121,724
985,1134,727
990,1138,730
995,1150,732
1000,1159,729
1004,1159,734
1010,1163,745
1014,1165,739
1020,1170,749
1025,1178,747
1030,1179,762
1035,1185,760
1040,1182,755
1045,1184,768
1050,1185,771
1055,1194,769
1060,1180,775
1065,1195,784
1070,1194,781
1075,1181,787
1080,1180,793
1085,1188,792
1090,1184,806
1095,1195,806
1100,1185,813
1105,1184,808
1110,1183,812
1115,1178,819
1120,1178,822
1125,1177,823
1130,1175,825
1135,1177,835
1140,1167,845
1145,1162,837
1150,1168,840
1155,1164,847
1160,1141,850
1165,1158,850
1170,1145,855
1175,1150,853
1180,1147,858
1185,1141,861
1190,1131,861
1195,1133,864
1200,1125,865
1205,1129,862
1210,1131,867
1215,1124,865
1220,1125,871
1225,1125,870
1230,1123,872
1235,1116,872
1240,1105,874
1245,1100,871
1250,1104,875
1255,1106,875
1260,1111,876
1265,1100,870
1270,1095,869
1275,1113,872
1280,1095,873
1285,1094,873
1290,1091,868
1295,1083,874
1300,1086,862
1305,1090,865
1310,1086,866
1315,1082,865
1320,1086,864
1325,1087,866
1330,1075,864
1335,1080,855
1340,1075,857
1345,1071,862
1350,1069,859
1355,1062,860
1360,1063,851
1365,1067,853
1370,1071,847
1375,1058,850
1380,1058,850
1385,1040,845
1390,1045,855
1395,1037,845
1400,1038,847
1405,1033,841
1410,1027,843
1415,1021,846
1420,1024,849
1425,1013,843
1430,999,844
1435,999,836
1440,990,838
1445,984,842
1450,980,842
1455,967,838
1460,973,838
1465,963,839
1470,948,836
1475,948,831
1480,941,833
1485,934,828
1490,929,837
1495,923,828
1500,906,832
1505,899,831
1510,900,826
1515,900,832
1520,875,832
1525,868,831
1530,872,829
1535,867,825
1540,851,823
1545,837,824
1550,835,824
1555,825,818
1560,823,817
1565,816,819
1570,804,820
1575,801,816
1580,798,816
1585,803,812
1590,786,814
1595,779,806
1600,772,812
1605,773,805
1610,755,802
1615,758,798
1620,765,796
1625,750,795
1630,752,788
1635,755,788
1640,744,785
1645,745,791
1650,749,784
1655,736,784
1660,750,781
1665,759,777
1670,751,779
1675,751,768
1680,765,764
1685,758,764
1690,756,760
1695,754,758
1700,776,758
1705,773,752
1710,782,751
1715,785,747
1720,784,743
1725,802,745
1730,809,738
1735,806,739
1740,817,732
1745,834,730
1750,830,729
1755,849,728
1760,849,722
1765,855,718
1770,866,714
1775,875,714
1780,885,712
1785,899,711
1790,909,710
1795,913,709
1800,938,706
1805,939,707
1810,955,706
1815,958,702
1820,977,706
1825,984,705
1830,988,702
1835,1010,698
1840,1014,704
1845,1023,706
1850,1028,701
1855,1045,703
1860,1038,701
1865,1063,702
1870,1065,707
1875,1083,710
1880,1092,714
1885,1095,714
1890,1103,717
1895,1103,712
1900,1121,716
1905,1131,720
1910,1140,721
1915,1141,725
1920,1151,725
1925,1157,726
1930,1158,735
1935,1162,738
1940,1163,738
1945,1169,745
1950,1171,749
1955,1177,751
1960,1173,757
1965,1189,769
1970,1186,764
1975,1178,770
1980,1185,770
1985,1193,775
1990,1191,783
1995,1191,786
2000,1185,788
2005,1180,794
2009,1192,798
2015,1187,800
2020,1188,805
2025,1188,806
2029,1187,809
2035,1184,818
2040,1185,818
2045,1182,821
2050,1167,819
2055,1165,827
2060,1175,833
2065,1174,836
2070,1161,836
2075,1155,843
2080,1156,843
2085,1156,843
2090,1146,849
2095,1158,853
2100,1146,853
2105,1145,855
2110,1148,858
2115,1131,855
2120,1136,861
2125,1132,864
2130,1127,865
2135,1122,865
2140,1121,867
2145,1127,873
2150,1129,865
2155,1120,868
2160,1110,863
2165,1115,869
2170,1112,871
2175,1105,866
2180,1105,869
2185,1109,875
2190,1106,871
2195,1111,874
2200,1097,868
2205,1094,869
2210,1104,866
2215,1100,870
2220,1096,875
2225,1090,868
2230,1096,870
2235,1084,858
2240,1090,868
2245,1076,864
2250,1079,863
2255,1081,866
2260,1084,858
2265,1080,861
2270,1080,859
2275,1079,857
2280,1068,858
2285,1070,860
2290,1066,856
2295,1066,855
2300,1059,855
2305,1049,852
2310,1046,851
2315,1046,851
2320,1036,847
2325,1037,846
2330,1036,847
2335,1026,848
2340,1027,845
2345,1025,842
2350,1011,847
2355,997,843
2360,1008,847
2365,996,835
2370,995,839
2375,980,837
2380,978,835
2385,981,836
2390,963,840
2395,965,838
2400,955,833
2405,943,841
2410,939,837
2415,928,835
2420,916,832
2425,920,834
2430,900,827
2435,895,830
2440,900,828
2445,884,826
2450,875,827
2455,865,828
2460,865,827
2465,853,829
2470,849,822
2475,837,826
2480,824,823
2485,825,821
2490,836,822
2495,813,818
2500,808,817
2505,797,816
2510,786,815
2515,787,815
2520,796,806
2525,773,806
2530,765,805
2535,771,807
2540,767,801
2545,762,799
2550,757,803
2555,754,796
2560,747,789
2565,754,789
2570,751,785
2575,743,783
2580,753,779
2585,750,786
2590,756,780
2595,750,773
2600,754,773
2605,752,774
2610,754,766
2615,766,760
2620,762,760
2625,769,755
2630,766,755
2635,775,751
2640,776,748
2645,782,747
2650,784,740
2655,798,743
2660,814,734
2665,814,736
2670,814,731
2675,830,731
2680,835,727
2685,839,722
2690,855,717
2695,862,724
2700,878,720
2705,879,717
2710,886,709
2715,895,713
2720,912,706
2725,912,706
2730,935,710
2735,946,706
2740,948,705
2745,965,703
2750,975,702
2755,980,706
2760,1002,697
2765,1007,701
2770,1012,703
2775,1029,704
2780,1045,702
2785,1043,708
2790,1059,707
2795,1057,703
2800,1064,707
2805,1082,710
2810,1093,712
2815,1098,713
2820,1106,717
2825,1118,713
2830,1125,722
2835,1128,718
2840,1136,724
2845,1135,728
2850,1144,733
2855,1141,731
2860,1156,738
2865,1164,741
2870,1166,744
2875,1165,747
2880,1176,749
2885,1174,749
2890,1177,755
2895,1191,755
2900,1178,767
2905,1188,763
2910,1189,777
2915,1189,773
2920,1185,779
2925,1182,787
2930,1185,791
2935,1186,792
2940,1181,798
2945,1192,804
2950,1184,800
2955,1188,809
2960,1193,811
2965,1178,814
2970,1183,818
2975,1184,821
2980,1170,823
2985,1165,825
2990,1167,834
2995,1167,832
3000,1166,842
3005,1169,843
3010,1158,843
3015,1160,853
3020,1156,847
3025,1154,854
3030,1150,856
3035,1151,858
3040,1135,864
3045,1134,862
3050,1130,863
3055,1133,857
3060,1132,869
3065,1137,868
3070,1130,869
3075,1131,865
3080,1114,871
3085,1118,874
3090,1124,868
3095,1115,875
3100,1110,866
3105,1107,870
3110,1113,872
3115,1105,865
3120,1103,871
3125,1102,868
3130,1105,869
3135,1112,869
3140,1095,868
3145,1091,867
3150,1080,871
3155,1096,867
3160,1099,865
3165,1084,866
3170,1090,865
3175,1081,863
3180,1084,865
3185,1078,860
3190,1079,866
3195,1072,861
3200,1064,854
3205,1066,860
3210,1080,855
3215,1068,855
3220,1058,855
3225,1060,854
3230,1057,858
3235,1049,856
3240,1052,852
3245,1043,855
3250,1043,852
3255,1037,845
3260,1029,841
3265,1024,843
3270,1026,839
3275,1020,848
3280,1005,840
3285,1006,844
3290,1001,841
3295,999,845
3300,990,838
3305,987,833
3310,977,836
3315,967,841
3320,959,837
3325,958,832
3330,953,835
3335,945,837
3340,938,836
3345,934,835
3350,928,833
3355,921,835
3360,891,831
3365,897,829
3370,879,832
3375,886,826
3380,872,828
3385,861,826
3390,859,831
3395,848,818
3400,844,827
3405,838,821
3410,829,821
3415,822,818
3420,817,821
3425,799,819
3430,803,818
3435,791,816
3440,784,812
3445,789,813
3450,783,816
3455,780,808
3460,776,806
3465,769,803
3470,756,801
3475,766,799
3480,753,800
3485,752,797
3490,752,797
3495,751,789
3500,746,782
3505,759,783
3510,743,779
3515,735,775
3520,743,777
3525,750,774
3530,745,770
3535,758,766
3540,759,762
3545,753,758
3550,765,761
3555,773,753
3560,771,752
3565,778,751
3570,786,748
3575,793,740
3580,804,742
3585,796,742
3590,807,734
3595,814,734
3600,828,728
3605,827,728
3610,832,726
3615,846,724
3620,861,724
3625,867,720
3630,879,719
3635,891,717
3640,896,716
3645,905,711
3650,912,709
3655,919,713
3660,934,708
3665,945,707
3670,964,706
3675,968,707
3680,969,698
3685,996,700
3690,998,705
3695,1012,700
3700,1024,707
3705,1023,708
3710,1037,700
3715,1050,713
3720,1064,707
3725,1065,710
3730,1078,708
3735,1086,710
3740,1088,711
3745,1100,712
3750,1112,715
3755,1108,725
3760,1130,720
3765,1132,721
3770,1142,731
3775,1152,727
3780,1149,732
3785,1151,735
3790,1159,739
3795,1158,740
3800,1169,746
3805,1171,752
3810,1180,754
3815,1181,758
3820,1176,757
3825,1184,762
3830,1181,766
3835,1179,769
3840,1187,774
3845,1188,775
3850,1190,783
3855,1182,783
3860,1186,790
3865,1191,793
3870,1187,796
3875,1179,800
3880,1195,809
3885,1184,809
3890,1190,813
3895,1177,820
3900,1170,822
3905,1172,827
3910,1166,826
3915,1166,832
3920,1162,833
3925,1169,834
3930,1160,836
3935,1152,844
3940,1159,850
3945,1151,847
3950,1148,855
3955,1152,855
3960,1146,865
3965,1152,857
3970,1142,860
3975,1129,859
3980,1150,865
3985,1133,868
3990,1135,868
3995,1140,865
4000,1122,867
4005,1115,873
4010,1120,867
4014,1114,872
4019,1116,873
4025,1111,868
4030,1110,874
4035,1115,873
4040,1106,879
4045,1099,872
4050,1106,878
4054,1096,872
4059,1105,865
4065,1096,868
4070,1092,871
4075,1090,876
4080,1092,872
4085,1087,872
4090,1088,867
4094,1085,869
4100,1084,864
4105,1087,861
4110,1075,865
4115,1078,862
4120,1074,857
4125,1073,860
4130,1073,861
4135,1064,855
4140,1072,860
4145,1060,850
4150,1059,853
4155,1055,854
4160,1057,851
4165,1058,853
4170,1047,846
4175,1053,853
4180,1048,849
4185,1036,842
4190,1037,841
4195,1029,847
4200,1024,844
4205,1011,846
4210,1009,841
4215,1008,845
4220,994,844
4225,996,842
4230,986,842
4235,972,840
4240,972,836
4245,979,837
4250,959,837
4255,961,833
4260,947,840
4265,935,833
4270,936,831
4275,926,834
4280,921,832
4285,905,835
4290,904,830
4295,901,829
4300,892,828
4305,882,826
4310,869,827
4315,865,828
4320,857,827
4325,846,825
4330,844,827
4335,838,818
4340,831,820
4345,827,823
4350,816,813
4355,808,817
4360,795,812
4365,798,810
4370,794,814
4375,785,807
4380,779,809
4385,774,806
4390,773,808
4395,754,799
4400,760,798
4405,760,796
4410,751,799
4415,751,794
4420,753,785
4425,744,791
4430,750,787
4435,743,785
4440,740,781
4445,747,777
4450,752,775
4455,751,776
4460,758,767
4465,757,765
4470,761,763
4475,768,759
4480,769,760
4485,774,754
4490,767,755
4495,777,750
4500,791,747
4505,789,745
4510,795,741
4515,799,737
4520,806,733
4525,815,732
4530,831,725
4535,824,727
4540,849,723
4545,848,721
4550,857,721
4555,876,715
4560,883,713
4565,888,713
4570,906,709
4575,903,709
4580,921,711
4585,929,710
4590,936,706
4595,954,705
4600,960,705
4605,979,699
4610,984,707
4615,993,701
4620,997,703
4625,1018,706
4630,1033,706
4635,1033,703
4640,1039,706
4645,1052,708
4650,1062,708
4655,1071,705
4660,1072,712
4665,1089,708
4670,1099,714
4675,1107,715
4680,1115,715
4685,1120,723
4690,1132,721
4695,1134,721
4700,1140,730
4705,1146,727
4710,1164,728
4715,1149,732
4720,1152,739
4725,1162,741
4730,1171,750
4735,1170,753
4740,1173,752
4745,1184,754
4750,1176,757
4755,1179,764
4760,1190,769
4765,1195,772
4770,1191,777
4775,1186,779
4780,1180,787
4785,1186,783
4790,1183,787
4795,1187,795
4800,1184,795
4805,1184,804
4810,1182,803
4815,1189,812
4820,1180,812
4825,1175,819
4830,1179,826
4835,1169,825
4840,1180,830
4845,1171,835
4850,1166,835
4855,1169,832
4860,1155,847
4865,1159,847
4870,1163,843
4875,1162,849
4880,1147,850
4885,1158,854
4890,1141,858
4895,1143,861
4900,1144,858
4905,1133,865
4910,1138,864
4915,1134,866
4920,1125,864
4925,1121,870
4930,1128,868
4935,1123,865
4940,1110,869
4945,1118,876
4950,1116,873
4955,1119,869
4960,1104,872
4965,1108,873
4970,1110,872
4975,1105,875
4980,1099,868
4985,1102,870
4990,1100,872
4995,1100,873
5000,1098,872
5005,1095,876
5010,1091,864
5015,1087,865
5020,1092,864
5025,1079,868
5030,1071,865
5035,1086,866
5040,1078,864
5045,1073,861
5050,1075,854
5055,1071,865
5060,1063,861
5065,1065,851
5070,1067,854
5075,1063,853
5080,1059,849
5085,1057,852
5090,1053,853
5095,1049,848
5100,1053,850
5105,1040,852
5110,1037,850
5115,1037,846
5120,1031,844
5125,1023,851
5130,1020,840
5135,1007,844
5140,1009,844
5145,1000,834
5150,986,842
5155,983,842
5160,989,841
5165,975,832
5170,979,839
5175,970,833
5180,969,837
5185,950,835
5190,951,832
5195,940,836
5200,932,829
5205,924,837
5210,903,831
5215,904,831
5220,903,829
5225,883,831
5230,879,832
5235,862,830
5240,869,829
5245,869,824
5250,854,826
5255,844,828
5260,835,819
5265,829,820
5270,822,821
5275,818,820
5280,805,816
5285,805,816
5290,794,814
5295,798,805
5300,791,809
5305,781,812
5310,774,810
5315,767,807
5320,760,808
5325,765,805
5330,758,799
5335,761,793
5340,754,793
5345,753,793
5350,747,795
5355,745,780
5360,750,783
5365,750,782
5370,753,778
5375,757,780
5380,752,778
5385,744,771
5390,749,766
5395,749,765
5400,762,763
5405,756,758
5410,773,757
5415,776,756
5420,774,749
5425,779,746
5430,781,747
5435,791,741
5440,799,738
5445,807,734
5450,815,736
5455,832,729
5460,829,724
5465,831,722
5470,853,725
5475,859,720
5480,867,715
5485,876,715
5490,889,711
5495,896,714
5500,914,710
5505,916,708
5510,930,709
5515,941,706
5520,946,701
5525,957,705
5530,974,699
5535,973,702
5540,996,707
5545,1001,702
5550,1014,704
5555,1016,704
5560,1036,709
5565,1048,707
5570,1054,708
5575,1053,700
5580,1067,706
5585,1075,706
5590,1096,705
5595,1090,709
5600,1095,714
5605,1111,715
5610,1116,721
5615,1118,717
5620,1139,723
5625,1128,725
5630,1145,729
5635,1149,734
5640,1153,737
5645,1157,735
5650,1158,736
5655,1163,736
5660,1167,748
5665,1182,752
5670,1174,758
5675,1169,762
5680,1191,760
5685,1194,760
5690,1181,771
5695,1183,774
5700,1188,778
5705,1192,779
5710,1180,777
5715,1176,794
5720,1187,793
5725,1177,800
5730,1196,803
5735,1178,807
5740,1193,808
5745,1195,813
5750,1176,816
5755,1188,824
5760,1176,830
5765,1169,824
5770,1163,829
5775,1172,837
5780,1162,839
5785,1158,842
5790,1156,848
5795,1155,841
5800,1157,848
5805,1152,851
5810,1147,860
5815,1151,853
5820,1150,862
5825,1148,861
5830,1142,861
5835,1137,863
5840,1134,866
5845,1132,866
5850,1130,864
5855,1125,868
5860,1133,866
5865,1122,868
5870,1111,870
5875,1117,872
5880,1114,871
5885,1107,869
5890,1116,873
5895,1115,870
5900,1100,871
5905,1104,871
5910,1094,869
5915,1102,868
5920,1106,864
5925,1094,866
5930,1100,868
5935,1093,870
5940,1089,867
5945,1077,867
5950,1087,863
5955,1089,864
5960,1080,864
5965,1073,863
5970,1088,861
5975,1067,861
5980,1070,858
5985,1074,862
5990,1063,856
5995,1062,852
6000,1069,859
6005,1056,851
6010,1060,856
6015,1057,858
6020,1054,847
6025,1054,855
6030,1047,845
6035,1032,851
6040,1043,847
6045,1028,847
6050,1029,839
6055,1016,843
6060,1018,840
6065,1010,843
6070,1005,843
6075,1003,840
6080,989,840
6085,995,840
6090,990,840
6095,988,837
6100,974,838
6105,960,834
6110,951,839
6115,940,831
6120,949,831
6125,939,837
6130,927,836
6135,918,833
6140,913,828
6145,898,828
6150,893,831
6155,880,830
6160,881,830
6165,875,830
6170,862,833
6175,857,826
6180,853,828
6185,842,825
6190,837,822
6195,837,821
6200,822,814
6205,809,816
6210,814,813
6215,797,820
6220,794,814
6225,790,812
6230,788,810
6235,774,808
6240,776,807
6245,773,807
6250,766,803
6255,755,796
6260,758,799
6265,751,795
6270,760,793
6275,747,787
6280,741,786
6285,750,786
6290,752,784
6295,746,783
6300,751,782
6305,742,775
6310,757,772
6315,747,765
6320,752,766
6325,764,762
6330,751,763
6335,776,754
6340,766,757
6345,778,753
6350,777,747
6355,786,751
6360,793,743
6365,802,737
6370,803,732
6375,809,738
6380,825,732
6385,824,728
6390,842,724
6395,839,719
6400,851,721
6405,850,721
6410,870,719
6415,881,713
6420,898,719
6425,896,710
6430,907,713
6435,926,710
6440,932,705
6445,949,704
6450,951,701
6455,962,707
6460,968,707
6465,974,703
6470,995,704
6475,1003,707
6480,1009,695
6485,1025,699
6490,1034,707
6495,1041,702
6500,1054,703
6505,1057,705
6510,1067,704
6515,1078,710
6520,1083,715
6525,1094,712
6530,1109,717
6535,1113,712
6540,1117,715
6545,1125,721
6550,1132,720
6555,1138,721
6560,1146,726
6565,1144,737
6570,1157,738
6575,1149,744
6580,1162,744
6585,1159,745
6590,1176,745
6595,1184,752
6600,1176,757
6605,1186,762
6610,1186,766
6615,1174,768
6620,1184,770
6625,1191,774
6630,1182,782
6635,1184,784
6640,1191,794
6645,1188,788
6650,1189,803
6655,1187,799
6660,1189,802
6665,1191,805
6670,1182,807
6675,1182,812
6680,1184,825
6685,1178,819
6690,1183,824
6695,1176,829
6700,1174,832
6705,1169,840
6710,1171,840
6715,1168,845
6720,1163,842
6725,1166,853
6730,1140,850
6735,1147,850
6740,1148,858
6745,1151,854
6750,1144,859
6755,1140,859
6760,1142,860
6765,1142,864
6770,1131,861
6775,1126,863
6780,1125,867
6785,1130,862
6790,1117,864
6795,1118,871
6800,1119,866
6805,1110,868
6810,1105,870
6815,1119,867
6820,1109,876
6825,1109,871
6830,1105,867
6835,1109,869
6840,1103,873
6845,1096,870
6850,1096,869
6855,1096,870
6860,1092,868
6865,1096,868
6870,1092,866
6875,1083,864
6880,1083,862
6885,1085,856
6890,1088,862
6895,1080,861
6900,1085,860
6905,1081,860
6910,1080,861
6915,1075,860
6920,1078,852
6925,1058,855
6930,1065,855
6935,1060,849
6940,1054,855
6945,1048,854
6950,1047,850
6955,1040,843
6960,1054,851
6965,1039,842
6970,1031,846
6975,1027,847
6980,1027,846
6985,1015,841
6990,1015,846
6995,994,843
7000,1009,839
7005,996,840
7010,994,836
7015,985,840
7020,982,842
7025,969,836
7030,964,842
7035,963,837
7040,955,835
7045,943,833
7050,933,835
7055,935,830
7060,932,834
7065,916,828
7070,913,831
7075,907,836
7080,895,832
7085,886,827
7090,867,827
7095,856,826
7100,870,830
7105,853,826
7110,838,826
7115,840,825
7120,836,824
7125,820,821
7130,812,823
7135,807,818
7140,806,813
7145,806,813
7150,798,810
7155,786,809
7160,784,811
7165,778,812
7170,780,808
7175,762,804
7180,766,798
7185,761,802
7190,763,799
7195,741,800
7200,755,796
7205,745,789
7210,746,784
7215,745,788
7220,741,784
7225,742,781
7230,750,774
7235,751,775
7240,749,769
7245,758,772
7250,763,761
7255,766,758
7260,759,751
7265,765,753
7270,772,749
7275,779,753
7280,769,750
7285,786,742
7290,784,741
7295,804,742
7300,807,743
7305,816,735
7310,823,733
7315,833,730
7320,832,724
7325,850,727
7330,855,722
7335,865,720
7340,875,712
7345,887,711
7350,888,711
7355,910,707
7360,917,710
7365,928,710
7370,942,708
7375,948,702
7380,952,712
7385,962,700
7390,985,700
7395,979,703
7400,1007,704
7405,1010,703
7410,1026,699
7415,1032,700
7420,1038,699
7425,1047,703
7430,1066,704
7435,1062,710
7440,1081,713
7445,1082,705
7450,1093,713
7455,1094,711
7460,1112,713
7465,1117,720
7470,1118,725
7475,1119,719
7480,1146,722
7485,1139,722
7490,1153,732
7495,1157,738
7500,1150,735
7505,1155,744
7510,1173,745
7515,1160,747
7520,1165,743
7525,1175,755
7530,1178,758
7535,1182,758
7540,1179,766
7545,1183,763
7550,1189,772
7555,1188,777
7560,1190,777
7565,1193,789
7570,1194,792
7575,1180,794
7580,1196,798
7585,1193,799
7590,1185,803
7595,1174,810
7600,1181,809
7605,1186,815
7610,1179,820
7615,1180,829
7620,1176,826
7625,1167,834
7630,1163,833
7635,1155,835
7640,1172,837
7645,1161,844
7650,1167,842
7655,1163,849
7660,1157,846
7665,1152,854
7670,1150,860
7675,1142,860
7680,1142,857
7685,1140,865
7690,1126,859
7695,1137,865
7700,1134,864
7705,1129,864
7710,1119,868
7715,1123,867
7720,1124,870
7725,1115,876
7730,1107,871
7735,1100,874
7740,1109,869
7745,1112,878
7750,1099,875
7755,1105,874
7760,1103,880
7765,1105,869
7770,1095,868
7775,1103,871
7780,1100,866
7785,1092,875
7790,1090,867
7795,1094,865
7800,1085,871
7805,1090,868
7810,1088,867
7815,1088,861
7820,1076,863
7825,1081,857
7830,1083,859
7835,1079,858
7840,1064,863
7845,1065,852
7850,1076,854
7855,1056,854
7860,1067,856
7865,1047,855
7870,1046,855
7875,1055,852
7880,1047,851
7885,1051,849
7890,1031,847
7895,1033,842
7900,1030,847
7905,1027,850
7910,1026,844
7915,1013,839
7920,1012,841
7925,1007,845
7930,1008,844
7935,985,836
7940,1002,836
7945,979,834
7950,982,836
7955,970,838
7960,954,836
7965,956,834
7970,956,838
7975,935,834
7980,936,840
7985,927,831
7990,914,831
7995,912,833
8000,903,827
8005,898,830
8010,889,832
8015,879,830
8020,868,833
8025,860,825
8029,858,825
8035,856,826
8039,838,827
8045,840,827
8050,842,824
8055,817,818
8060,819,816
8064,819,816
8070,805,819
8074,796,810
8080,795,811
8085,784,811
8090,781,808
8095,782,809
8100,771,808
8105,763,805
8109,746,801
8115,757,804
8119,753,794
8125,752,790
8130,747,791
8135,752,794
8140,746,785
8145,748,780
8150,750,782
8154,749,780
8160,738,774
8164,752,767
8170,753,772
8175,750,766
8180,757,761
8185,761,766
8189,762,760
8195,763,755
8200,782,751
8205,773,750
8210,779,749
8215,790,741
8220,796,738
8225,806,734
8230,815,734
8235,814,729
8240,821,730
8245,831,724
8250,839,723
8255,853,722
8260,854,723
8265,874,716
8270,884,719
8275,888,714
8280,896,709
8285,894,713
8290,921,708
8295,932,708
8300,940,705
8305,955,706
8310,958,705
8315,972,703
8320,988,706
8325,993,701
8330,999,703
8335,1014,706
8340,1026,703
8345,1031,705
8350,1042,705
8355,1053,716
8360,1059,710
8365,1070,709
8370,1081,714
8375,1085,708
8380,1095,712
8385,1102,716
8390,1102,723
8395,1126,716
8400,1136,716
8405,1134,725
8410,1132,727
8415,1139,733
8420,1152,730
8425,1159,736
8430,1158,743
8435,1159,738
8440,1169,747
8445,1171,749
8450,1173,747
8455,1172,753
8460,1180,763
8465,1183,764
8470,1185,762
8475,1190,770
8480,1181,776
8485,1190,777
8490,1198,779
8495,1190,791
8500,1179,795
8505,1188,789
8510,1184,798
8515,1186,803
8520,1180,805
8525,1189,808
8530,1181,814
8535,1174,818
8540,1177,825
8545,1171,827
8550,1173,828
8555,1175,838
8560,1174,836
8565,1177,836
8570,1172,841
8575,1162,842
8580,1161,844
8585,1161,851
8590,1144,847
8595,1145,852
8600,1140,861
8605,1149,857
8610,1141,859
8615,1143,857
8620,1135,863
8625,1137,864
8630,1137,865
8635,1126,869
8640,1128,862
8645,1128,872
8650,1121,867
8655,1122,868
8660,1126,870
8665,1113,866
8670,1113,871
8675,1103,873
8680,1101,875
8685,1114,872
8690,1109,870
8695,1098,871
8700,1094,869
8705,1089,874
8710,1095,872
8715,1085,871
8720,1095,873
8725,1086,869
8730,1082,866
8735,1090,861
8740,1093,868
8745,1080,867
8750,1075,865
8755,1080,856
8760,1077,861
8765,1082,862
8770,1071,860
8775,1071,859
8780,1062,855
8785,1068,855
8790,1059,854
8795,1054,854
8800,1056,851
8805,1045,849
8810,1048,848
8815,1046,851
8820,1037,848
8825,1037,847
8830,1022,844
8835,1031,843
8840,1027,847
8845,998,841
8850,1006,843
8855,1009,838
8860,1005,838
8865,985,842
8870,985,841
8875,973,837
8880,980,842
8885,966,834
8890,956,836
8895,947,833
8900,941,835
8905,947,833
8910,936,832
8915,925,835
8920,919,829
8925,907,832
8930,900,831
8935,890,829
8940,890,825
8945,880,830
8950,866,827
8955,867,828
8960,858,826
8965,843,824
8970,846,819
8975,830,823
8980,834,813
8985,811,821
8990,807,822
8995,801,819
9000,791,815
9005,802,808
9010,789,814
9015,785,808
9020,780,803
9025,767,807
9030,768,806
9035,758,801
9040,762,795
9045,756,798
9050,748,794
9055,753,793
9060,749,789
9065,746,789
9070,753,783
9075,750,783
9080,754,783
9085,744,772
9090,752,773
9095,756,770
9100,752,769
9105,752,764
9110,757,759
9115,759,759
9120,759,752
9125,782,758
9130,778,750
9135,779,744
9140,785,743
9145,795,741
9150,792,740
9155,806,738
9160,809,734
9165,821,732
9170,824,728
9175,833,729
9180,842,723
9185,852,726
9190,859,718
9195,867,716
9200,882,718
9205,891,713
9210,909,712
9215,917,707
9220,924,714
9225,937,706
9230,948,710
9235,953,702
9240,964,704
9245,973,703
9250,975,705
9255,998,709
9260,998,704
9265,1015,706
9270,1027,704
9275,1033,701
9280,1038,706
9285,1062,711
9290,1071,709
9295,1071,710
9300,1078,713
9305,1100,711
9310,1098,710
9315,1106,717
9320,1116,713
9325,1121,722
9330,1128,728
9335,1134,725
9340,1141,728
9345,1151,734
9350,1156,736
9355,1156,736
9360,1162,742
9365,1158,743
9370,1170,748
9375,1177,748
9380,1180,757
9385,1172,758
9390,1181,760
9395,1175,771
9400,1185,771
9405,1183,774
9410,1188,772
9415,1185,779
9420,1182,782
9425,1181,788
9430,1197,792
9435,1185,793
9440,1182,800
9445,1191,804
9450,1180,810
9455,1184,814
9460,1177,816
9465,1185,824
9470,1177,820
9475,1176,826
9480,1175,828
9485,1174,834
9490,1168,839
9495,1170,838
9500,1167,842
9505,1166,846
9510,1155,843
9515,1149,851
9520,1154,857
9525,1149,854
9530,1148,852
9535,1139,861
9540,1134,857
9545,1138,861
9550,1138,866
9555,1130,868
9560,1126,862
9565,1125,869
9570,1136,872
9575,1118,869
9580,1111,868
9585,1122,871
9590,1109,870
9595,1117,865
9600,1102,879
9605,1111,874
9610,1115,867
9615,1108,872
9620,1099,871
9625,1098,865
9630,1102,871
9635,1096,870
9640,1093,869
9645,1092,870
9650,1089,869
9655,1097,871
9660,1077,866
9665,1080,868
9670,1081,864
9675,1080,862
9680,1078,860
9685,1074,865
9690,1079,865
9695,1074,861
9700,1074,856
9705,1060,856
9710,1067,854
9715,1065,857
9720,1061,850
9725,1044,854
9730,1046,849
9735,1058,854
9740,1049,851
9745,1043,849
9750,1039,850
9755,1030,841
9760,1024,846
9765,1020,851
9770,1014,845
9775,1007,842
9780,1010,839
9785,999,845
9790,998,837
9795,995,839
9800,979,837
9805,969,838
9810,971,841
9815,966,835
9820,956,836
9825,950,839
9830,939,841
9835,935,835
9840,936,833
9845,923,829
9850,912,828
9855,902,830
9860,899,827
9865,897,828
9870,874,830
9875,875,823
9880,867,822
9885,862,831
9890,840,829
9895,844,820
9900,838,826
9905,821,816
9910,827,815
9915,817,818
9920,812,822
9925,795,818
9930,800,810
9935,787,813
9940,781,808
9945,780,810
9950,777,815
9955,767,810
9960,770,806
9965,760,798
9970,750,798
9975,754,797
9980,749,790
9985,756,799
9990,751,786
9995,757,787
10000,747,783
10005,750,781
10010,746,780
10015,754,779
10020,754,767
10025,752,771
10030,757,768
10035,754,764
10040,762,755
10045,769,756
10050,758,757
10055,775,754
10060,790,753
10065,781,746
10070,790,750
10075,788,739
10080,798,732
10085,813,739
10090,818,734
10095,828,732
10100,833,720
10105,829,730
10110,850,726
10115,859,719
10120,858,717
10125,877,713
10130,883,717
10135,883,708
10140,908,714
10145,921,709
10150,930,707
10155,937,708
10160,946,706
10165,963,709
10170,969,708
10175,977,700
10180,982,702
10185,1003,705
10190,1008,708
10195,1017,704
10200,1028,699
10205,1039,706
10210,1044,705
10215,1063,706
10220,1072,710
10225,1081,705
10230,1083,712
10235,1098,709
10240,1105,713
10245,1114,720
10250,1116,721
10255,1125,720
10260,1122,723
10265,1136,728
10270,1143,731
10275,1150,731
10280,1148,732
10285,1156,738
10290,1167,741
10295,1161,742
10300,1168,751
10305,1179,751
10310,1179,752
10315,1183,762
10320,1184,764
10325,1182,763
10330,1184,773
10335,1190,775
10340,1184,777
10345,1187,786
10350,1187,784
10355,1187,793
10360,1193,792
10365,1191,798
10370,1190,802
10375,1185,807
10380,1182,809
10385,1182,814
10390,1173,820
10395,1166,821
10400,1181,827
10405,1168,825
10410,1173,829
10415,1160,837
10420,1164,838
10425,1174,846
10430,1155,846
10435,1159,847
10440,1157,851
10445,1148,849
10450,1144,850
10455,1144,854
10460,1142,855
10465,1146,853
10470,1137,862
10475,1130,860
10480,1136,865
10485,1125,868
10490,1131,871
10495,1122,865
10500,1112,865
10505,1120,871
10510,1117,870
10515,1122,867
10520,1118,866
10525,1108,874
10530,1110,872
10535,1117,871
10540,1105,868
10545,1100,868
10550,1099,874
10555,1101,871
10560,1096,873
10565,1092,865
10570,1097,867
10575,1091,866
10580,1092,869
10585,1085,873
10590,1081,865
10595,1089,859
10600,1090,865
10605,1077,863
10610,1077,863
10615,1070,860
10620,1073,860
10625,1066,852
10630,1065,858
10635,1057,850
10640,1058,856
10645,1069,851
10650,1069,851
10655,1054,855
10660,1049,854
10665,1056,851
10670,1038,846
10675,1038,848
10680,1043,853
10685,1025,840
10690,1022,846
10695,1018,847
10700,1014,842
10705,1004,842
10710,1007,842
10715,1003,836
10720,1006,840
10725,979,842
10730,979,843
10735,974,833
10740,965,837
10745,955,839
10750,947,832
10755,945,833
10760,937,831
10765,943,837
10770,928,833
10775,920,831
10780,910,830
10785,903,827
10790,901,833
10795,885,828
10800,879,831
10805,874,824
10810,857,826
10815,855,826
10820,858,822
10825,837,828
10830,836,825
10835,830,821
10840,811,822
10845,811,816
10850,812,814
10855,799,812
10860,787,815
10865,795,810
10870,788,811
10875,775,806
10880,773,802
10885,766,808
10890,766,802
10895,764,800
10900,761,796
10905,759,794
10910,748,789
10915,755,790
10920,746,785
10925,749,787
10930,757,783
10935,746,784
10940,748,777
10945,747,772
10950,736,775
10955,751,765
10960,752,764
10965,759,759
10970,765,761
10975,767,760
10980,768,756
10985,777,751
10990,774,749
10995,794,750
11000,789,737
11005,798,739
11010,808,736
11015,810,733
11020,823,735
11025,829,728
11030,834,725
11035,850,723
11040,854,721
11045,860,724
11050,878,717
11055,879,713
11060,893,716
11065,904,707
11070,914,707
11075,920,708
11080,935,707
11085,944,705
11090,954,705
11095,960,706
11100,977,704
11105,984,706
11110,991,700
11115,1004,707
11120,1013,703
11125,1033,703
11130,1034,705
11135,1055,702
11140,1053,700
11145,1055,707
11150,1064,707
11155,1077,709
11160,1090,708
11165,1100,712
11170,1110,712
11175,1122,717
11180,1131,720
11185,1132,719
11190,1140,728
11195,1136,727
11200,1154,726
11205,1151,731
11210,1156,734
11215,1166,740
11220,1166,744
11225,1168,744
11230,1175,748
11235,1174,755
11240,1182,756
11245,1182,761
11250,1185,763
11255,1188,774
11260,1183,769
11265,1189,780
11270,1183,784
11275,1191,781
11280,1184,790
11285,1180,793
11290,1186,789
11295,1185,801
11300,1177,809
11305,1176,807
11310,1182,811
11315,1184,813
11320,1186,813
11325,1183,824
11330,1166,824
11335,1170,830
11340,1176,831
11345,1163,839
11350,1161,842
11355,1163,843
11360,1163,840
11365,1152,845
11370,1160,850
11375,1147,849
11380,1151,852
11385,1151,854
11390,1141,857
11395,1143,855
11400,1140,861
11405,1131,862
11410,1132,863
11415,1121,868
11420,1127,866
11425,1119,868
11430,1120,877
11435,1114,871
11440,1118,873
11445,1103,875
11450,1105,868
11455,1111,868
11460,1098,867
11465,1103,875
11470,1106,871
11475,1097,868
11480,1095,868
11485,1103,867
11490,1097,867
11495,1097,864
11500,1094,874
11505,1095,868
11510,1080,868
11515,1085,868
11520,1088,864
11525,1084,864
11530,1080,860
11535,1078,860
11540,1074,864
11545,1076,856
11550,1076,858
11555,1070,858
11560,1070,851
11565,1064,854
11570,1060,854
11575,1062,858
11580,1056,860
11585,1047,852
11590,1049,849
11595,1044,847
11600,1053,847
11605,1034,847
11610,1031,849
11615,1038,842
11620,1023,844
11625,1023,845
11630,1006,841
11635,1006,842
11640,1001,839
11645,1000,839
11650,993,836
11655,978,836
11660,980,841
11665,977,836
11670,966,841
11675,962,836
11680,953,834
11685,937,832
11690,933,837
11695,929,837
11700,928,837
11705,908,831
11710,902,827
11715,897,828
11720,892,831
11725,885,829
11730,876,831
11735,861,830
11740,855,824
11745,850,826
11750,848,823
11755,843,816
11760,830,822
11765,821,824
11770,816,820
11775,803,814
11780,797,815
11785,802,811
11790,790,814
11795,782,808
11800,786,809
11805,771,804
11810,778,804
11815,774,803
11820,757,804
11825,751,801
11830,756,794
11835,756,797
11840,754,795
11845,750,792
11850,745,784
11855,745,782
11860,744,787
11865,748,777
11870,743,776
11875,753,770
11880,751,768
11885,747,765
11890,753,765
11895,767,763
11900,765,764
11905,774,753
11910,771,757
11915,775,749
11920,782,744
11925,789,744
11930,795,740
11935,794,734
11940,812,730
11945,811,738
11950,817,728
11955,832,731
11960,842,735
11965,847,724
11970,865,722
11975,868,716
11980,878,713
11985,883,721
11990,896,720
11995,907,709
12000,917,705
12005,918,708
12010,939,708
12015,946,704
12020,957,702
12025,963,708
12030,973,705
12035,992,706
12040,993,703
12045,1004,699
12050,1025,697
12055,1036,707
12060,1049,704
12065,1046,708
12070,1054,709
12075,1056,706
12080,1075,708
12085,1088,716
12090,1088,713
12095,1092,715
12100,1102,717
12105,1108,712
12110,1117,719
12115,1135,721
12120,1131,725
12125,1146,723
12130,1153,734
12135,1144,728
12140,1163,738
12145,1164,740
12150,1163,749
12155,1172,743
12160,1172,748
12165,1179,757
12170,1175,756
12175,1192,760
12180,1187,765
12185,1189,769
12190,1183,777
12195,1189,780
12200,1192,784
12205,1179,784
12210,1184,789
12215,1183,796
12220,1191,794
12225,1184,804
12230,1187,810
12235,1164,815
12240,1184,814
12245,1187,812
12250,1176,818
12255,1175,827
12260,1177,829
12265,1181,831
12270,1170,828
12275,1179,841
12280,1162,846
12285,1160,845
12290,1166,848
12295,1155,853
12300,1150,852
12305,1151,854
12310,1151,858
12315,1138,857
12320,1135,859
12325,1134,862
12330,1136,861
12335,1133,865
12340,1123,863
12345,1127,866
12350,1127,866
12355,1121,873
12360,1118,866
12365,1121,874
12370,1109,869
12375,1113,869
12380,1109,873
12385,1098,874
12390,1109,870
12395,1107,872
12400,1111,871
12405,1108,872
12410,1093,870
12415,1104,867
12420,1089,868
12425,1094,867
12430,1082,871
12435,1087,865
12440,1090,864
12445,1086,864
12450,1089,865
12455,1072,866
12460,1074,860
12465,1070,869
12470,1071,868
12475,1081,855
12480,1072,859
12485,1061,862
12490,1061,855
12495,1064,853
12500,1063,857
12505,1066,852
12510,1056,851
12515,1059,850
12520,1052,850
12525,1037,849
12530,1038,848
12535,1038,845
12540,1032,849
12545,1023,848
12550,1024,845
12555,1007,847
12560,1014,841
12565,1010,836
12570,998,846
12575,991,841
12580,985,834
12585,985,843
12590,972,837
12595,966,835
12600,956,833
12605,953,835
12610,947,833
12615,943,834
12620,937,836
12625,935,837
12630,918,826
12635,904,831
12640,906,827
12645,893,829
12650,889,827
12655,874,827
12660,876,836
12665,860,821
12670,853,819
12675,850,822
12680,844,821
12685,841,819
12690,824,821
12695,813,817
12700,816,818
12705,799,818
12710,803,810
12715,791,814
12720,790,815
12725,788,810
12730,782,812
12735,771,809
12740,774,803
12745,759,803
12750,771,800
12755,763,803
12760,750,801
12765,755,795
12770,759,790
12775,737,782
12780,757,788
12785,755,780
12790,741,780
12795,747,774
12800,758,773
12805,748,774
12810,753,771
12815,754,768
12820,763,762
12825,760,764
12830,760,761
12835,773,753
12840,768,750
12845,783,744
12850,781,743
12855,781,740
12860,798,740
12865,816,733
12870,801,735
12875,826,740
12880,812,728
12885,829,726
12890,848,719
12895,851,720
12900,868,711
12905,876,719
12910,876,716
12915,895,714
12920,909,713
12925,908,711
12930,923,715
12935,925,709
12940,942,708
12945,955,703
12950,952,703
12955,977,707
12960,982,705
12965,986,705
12970,1004,703
12975,1022,702
12980,1021,702
12985,1046,701
12990,1043,702
12995,1059,707
13000,1065,708
13005,1070,713
13010,1079,715
13015,1086,714
13020,1089,716
13025,1104,717
13030,1114,716
13035,1125,722
13040,1128,725
13045,1132,722
13050,1144,727
13055,1134,726
13060,1151,734
13065,1160,736
13070,1167,737
13075,1157,740
13080,1169,745
13085,1167,749
13090,1174,756
13095,1173,757
13100,1174,759
13105,1179,762
13110,1192,771
13115,1182,770
13120,1188,774
13125,1192,782
13130,1193,789
13135,1190,791
13140,1187,792
13145,1191,793
13150,1192,800
13155,1175,806
13160,1188,805
13165,1187,812
13170,1175,811
13175,1186,818
13180,1172,824
13185,1174,822
13190,1176,825
13195,1167,827
13200,1170,836
13205,1171,842
13210,1174,847
13215,1152,845
13220,1161,848
13225,1155,847
13230,1157,851
13235,1151,852
13240,1141,854
13245,1148,855
13250,1133,861
13255,1128,857
13260,1137,863
13265,1139,872
13270,1123,864
13275,1128,869
13280,1117,872
13285,1119,873
13290,1119,871
13295,1107,871
13300,1110,864
13305,1114,869
13310,1113,867
13315,1117,872
13320,1098,873
13325,1105,871
13330,1103,868
13335,1098,870
13340,1103,875
13345,1103,870
13350,1094,868
13355,1100,863
13360,1087,859
13365,1100,875
13370,1087,861
13375,1083,866
13380,1079,867
13385,1088,866
13390,1079,862
13395,1070,865
13400,1063,862
13405,1073,861
13410,1078,856
13415,1066,856
13420,1065,854
13425,1064,854
13430,1061,854
13435,1051,856
13440,1060,853
13445,1052,849
13450,1054,852
13455,1047,849
13460,1027,843
13465,1034,847
13470,1030,845
13475,1018,845
13480,1017,848
13485,1008,841
13490,1013,842
13495,1005,839
13500,1005,842
13505,989,840
13510,988,844
13515,973,843
13520,975,836
13525,964,838
13530,964,840
13535,949,836
13540,945,843
13545,941,836
13550,932,832
13555,913,833
13560,910,833
13565,911,830
13570,902,822
13575,890,823
13580,890,830
13585,874,832
13590,874,826
13595,857,825
13600,856,819
13605,848,825
13610,839,823
13615,830,824
13620,826,823
13625,811,822
13630,808,818
13635,803,820
13640,798,819
13645,792,811
13650,785,817
13655,782,813
13660,779,806
13665,769,802
13670,770,803
13675,764,802
13680,757,805
13685,754,798
13690,755,794
13695,752,793
13700,748,787
13705,754,786
13710,745,785
13715,745,780
13720,742,782
13725,746,771
13730,744,772
13735,754,775
13740,755,766
13745,757,767
13750,755,765
13755,753,754
13760,765,752
13765,764,754
13770,774,755
13775,778,748
13780,785,745
13785,801,751
13790,796,734
13795,804,740
13800,814,734
13805,815,731
13810,835,732
13815,841,722
13820,844,724
13825,858,719
13830,862,716
13835,870,718
13840,887,715
13845,899,710
13850,901,710
13855,918,712
13860,924,710
13865,937,708
13870,945,707
13875,966,712
13880,969,706
13885,971,702
13890,982,703
13895,1000,708
13900,997,703
13905,1019,701
13910,1027,706
13915,1043,704
13920,1048,707
13925,1043,708
13930,1067,709
13935,1079,710
13940,1085,711
13945,1090,713
13950,1100,713
13955,1107,714
13960,1112,715
13965,1121,717
13970,1131,718
13975,1134,724
13980,1137,725
13985,1144,730
13990,1149,736
13995,1149,740
14000,1159,740
14005,1171,746
14010,1165,744
14015,1184,748
14020,1180,751
14025,1188,755
14030,1179,763
14035,1180,773
14040,1183,763
14045,1188,773
14050,1190,776
14055,1188,779
14060,1193,787
14065,1185,787
14070,1191,792
14075,1182,795
14080,1181,804
14085,1185,807
14090,1191,812
14095,1187,817
14100,1186,813
14105,1178,822
14110,1179,825
14115,1170,827
14120,1175,836
14125,1168,834
14130,1162,839
14135,1171,844
14140,1160,842
14145,1154,849
14150,1155,843
14155,1152,851
14160,1154,851
14165,1157,857
14170,1154,856
14175,1138,862
14180,1151,865
14185,1131,864
14190,1137,863
14195,1133,865
14200,1130,872
14205,1130,868
14210,1122,868
14215,1124,870
14220,1119,874
14225,1113,871
14230,1122,869
14235,1122,871
14240,1106,872
14245,1104,869
14250,1109,874
14255,1109,870
14260,1094,870
14265,1097,868
14270,1105,874
14275,1095,865
14280,1090,870
14285,1089,869
14290,1092,864
14295,1089,869
14300,1088,870
14305,1090,864
14310,1077,862
14315,1074,858
14320,1083,866
14325,1076,857
14330,1070,861
14335,1066,859
14340,1070,858
14345,1074,861
14350,1063,854
14355,1066,857
14360,1058,852
14365,1046,853
14370,1044,851
14375,1038,847
14380,1045,851
14385,1044,848
14390,1030,850
14395,1040,845
14400,1024,847
14405,1023,845
14410,1022,847
14415,1007,838
14420,1013,844
14425,994,837
14430,992,842
14435,986,838
14440,984,838
14445,979,838
14450,973,837
14455,960,834
14460,958,839
14465,944,838
14470,939,833
14475,935,832
14480,924,834
14485,925,830
14490,908,830
14495,905,833
14500,897,829
14505,885,834
14510,876,827
14515,874,825
14520,877,824
14525,854,828
14530,843,827
14535,852,820
14540,828,821
14545,827,822
14550,816,820
14555,816,820
14560,810,813
14565,804,814
14570,800,814
14575,792,813
14580,791,812
14585,777,805
14590,771,805
14595,772,809
14600,762,799
14605,766,801
14610,754,801
14615,757,797
14620,747,794
14625,759,789
14630,742,789
14635,750,780
14640,743,784
14645,745,781
14650,748,775
14655,747,774
14660,748,775
14665,751,771
14670,753,769
14675,758,763
14680,757,765
14685,757,749
14690,765,753
14695,772,751
14700,782,745
14705,785,743
14710,778,741
14715,802,742
14720,796,743
14725,802,736
14730,819,725
14735,825,733
14740,836,729
14745,848,721
14750,854,719
14755,861,720
14760,872,716
14765,870,717
14770,888,712
14775,892,710
14780,914,712
14785,921,708
14790,933,707
14795,945,709
14800,943,706
14805,963,703
14810,975,704
14815,988,699
14820,992,704
14825,999,706
14830,1014,703
14835,1026,703
14840,1039,703
14845,1037,706
14850,1054,703
14855,1061,707
14860,1073,705
14865,1082,707
14870,1088,710
14875,1098,710
14880,1107,711
14885,1108,715
14890,1116,721
14895,1129,722
14900,1133,719
14905,1136,726
14910,1139,724
14915,1150,733
14920,1153,736
14925,1154,740
14930,1159,745
14935,1172,746
14940,1172,747
14945,1174,749
14950,1176,755
14955,1174,756
14960,1182,763
14965,1181,768
14970,1195,772
14975,1187,772
14980,1182,779
14985,1194,779
14990,1188,786
14995,1186,792
15000,1191,794
15005,1188,799
15010,1178,807
15015,1184,804
15020,1182,812
15025,1182,818
15030,1178,819
15035,1174,820
15040,1172,825
15045,1168,830
15050,1170,826
15055,1173,837
15060,1175,840
15065,1164,843
15070,1159,849
15075,1155,848
15080,1156,846
15085,1152,851
15090,1148,852
15095,1151,853
15100,1146,854
15105,1144,864
15110,1136,856
15115,1132,863
15120,1129,865
15125,1132,865
15130,1125,865
15135,1125,875
15140,1125,874
15145,1106,871
15150,1113,870
15155,1112,874
15160,1114,877
15165,1109,871
15170,1109,866
15175,1103,868
15180,1108,866
15185,1103,872
15190,1094,870
15195,1103,874
15200,1099,871
15205,1097,866
15210,1097,872
15215,1092,866
15220,1088,867
15225,1085,871
15230,1086,866
15235,1081,861
15240,1083,868
15245,1079,860
15250,1079,863
15255,1084,866
15260,1079,859
15265,1072,855
15270,1062,854
15275,1062,858
15280,1061,854
15285,1065,845
15290,1056,854
15295,1050,854
15300,1046,850
15305,1038,853
15310,1046,847
15315,1026,849
15320,1042,849
15325,1038,843
15330,1017,848
15335,1025,843
15340,1007,839
15345,1008,846
15350,1002,837
15355,1000,840
15360,991,843
15365,988,836
15370,978,843
15375,974,839
15380,966,834
15385,949,837
15390,953,838
15395,946,835
15400,943,830
15405,931,828
15410,931,831
15415,909,835
15420,913,834
15425,899,827
15430,893,832
15435,893,835
15440,873,826
15445,877,829
15450,865,830
15455,860,823
15460,852,822
15465,843,823
15470,827,819
15475,822,818
15480,821,821
15485,807,813
15490,805,816
15495,803,818
15500,791,808
15505,780,807
15510,792,806
15515,779,807
15520,778,805
15525,760,801
15530,757,805
15535,754,799
15540,760,794
15545,751,799
15550,747,792
15555,756,791
15560,743,789
15565,749,781
15570,744,781
15575,750,775
15580,756,775
15585,760,773
15590,747,773
15595,757,764
15600,745,763
15605,758,765
15610,767,761
15615,765,760
15620,769,754
15625,769,754
15630,784,750
15635,782,743
15640,797,739
15645,798,739
15650,813,735
15655,816,736
15660,820,732
15665,829,729
15670,835,728
15675,846,725
15680,852,720
15685,868,718
15690,865,719
15695,876,715
15700,895,712
15705,912,710
15710,913,704
15715,920,709
15720,933,703
15725,946,704
15730,956,702
15735,963,705
15740,973,702
15745,978,698
15750,988,701
15755,1009,706
15760,1023,706
15765,1033,708
15770,1028,707
15775,1044,707
15780,1052,704
15785,1059,705
15790,1087,710
15795,1088,712
15800,1091,704
15805,1099,715
15810,1103,715
15815,1111,714
15820,1122,722
15825,1135,724
15830,1131,725
15835,1143,727
15840,1150,733
15845,1149,731
15850,1163,733
15855,1170,740
15860,1160,740
15865,1176,752
15870,1178,747
15875,1183,758
15880,1185,759
15885,1182,756
15890,1184,761
15895,1190,767
15900,1188,770
15905,1184,775
15910,1187,776
15915,1185,782
15920,1187,790
15925,1189,800
15930,1191,796
15935,1190,800
15940,1181,807
15945,1181,803
15950,1183,816
15955,1176,813
15960,1184,824
15965,1171,827
15970,1167,825
15975,1170,826
15980,1168,832
15985,1164,840
15990,1170,840
15995,1160,839
16000,1169,844
16004,1155,847
16010,1155,847
16015,1163,851
16020,1148,860
16024,1142,858
16030,1145,861
16035,1142,860
16040,1139,862
16045,1129,867
16050,1129,870
16055,1134,869
16059,1117,873
16065,1126,868
16070,1119,864
16075,1114,871
16079,1118,873
16085,1123,871
16090,1112,872
16094,1116,870
16100,1109,868
16105,1105,871
16110,1091,878
16114,1103,869
16120,1106,876
16125,1099,870
16129,1092,869
16135,1094,869
16140,1097,875
16145,1088,867
16149,1092,865
16155,1087,867
16160,1085,864
16165,1084,863
16170,1081,862
16175,1084,859
16180,1079,861
16184,1061,862
16190,1086,860
16195,1077,858
16200,1061,853
16204,1064,861
16210,1052,856
16215,1048,853
16219,1061,855
16225,1056,861
16230,1048,855
16235,1040,854
16239,1035,852
16245,1029,850
16250,1042,848
16254,1027,851
16260,1023,843
16265,1015,842
16270,1014,839
16274,1002,839
16280,1001,846
16285,1000,844
16290,991,841
16295,984,837
16300,979,840
16305,980,840
16309,961,828
16315,967,838
16320,952,839
16325,948,838
16329,937,835
16335,925,832
16340,917,836
16344,918,835
16350,906,834
16355,893,831
16360,889,821
16364,878,827
16370,886,827
16375,864,826
16379,860,827
16385,855,820
16390,835,820
16395,832,823
16400,829,818
16405,822,821
16410,804,815
16415,808,811
16420,798,819
16425,802,809
16430,792,813
16435,784,812
16440,783,812
16445,772,809
16450,775,802
16455,764,803
16460,765,801
16465,758,796
16470,755,798
16475,757,793
16480,750,791
16485,756,791
16490,745,787
16495,744,785
16500,746,783
16505,740,772
16510,759,777
16515,754,771
16520,754,775
16525,753,766
16530,766,764
16535,764,758
16540,766,759
16545,773,758
16550,779,751
16555,777,754
16560,787,749
16565,787,742
16570,792,737
16575,798,738
16580,802,735
16585,813,733
16590,821,731
16595,838,725
16600,841,723
16605,843,717
16610,862,722
16615,863,717
16620,877,720
16625,890,708
16630,894,712
16635,901,708
16640,920,707
16645,931,712
16650,935,707
16655,948,710
16660,961,702
16665,965,699
16670,992,703
16675,992,706
16680,1005,710
16685,1003,698
16690,1020,698
16695,1031,709
16700,1045,707
16705,1057,704
16710,1055,706
16715,1066,706
16720,1081,710
16725,1079,710
16730,1098,715
16735,1103,711
16740,1115,715
16745,1109,719
16750,1127,720
16755,1140,719
16760,1132,724
16765,1145,726
16770,1142,726
16775,1146,734
16780,1160,739
16785,1160,741
16790,1168,742
16795,1164,751
16800,1176,753
16805,1179,756
16810,1180,759
16815,1178,762
16820,1187,764
16825,1186,769
16830,1188,776
16835,1192,776
16840,1195,787
16845,1191,785
16850,1189,790
16855,1191,792
16860,1182,798
16865,1188,804
16870,1190,804
16875,1183,807
16880,1182,813
16885,1179,817
16890,1184,824
16895,1179,826
16900,1166,827
16905,1173,833
16910,1167,831
16915,1163,839
16920,1165,835
16925,1154,844
16930,1169,846
16935,1153,846
16940,1158,849
16945,1155,849
16950,1138,860
16955,1143,860
16960,1145,863
16965,1138,861
16970,1134,863
16975,1128,865
16980,1130,866
16985,1137,860
16990,1120,868
16995,1121,869
17000,1112,874
17005,1124,879
17010,1103,873
17015,1116,872
17020,1110,870
17025,1102,876
17030,1112,872
17035,1107,868
17040,1107,873
17045,1105,875
17050,1101,873
17055,1091,865
17060,1092,870
17065,1090,873
17070,1093,868
17075,1092,870
17080,1089,869
17085,1079,870
17090,1088,865
17095,1076,862
17100,1085,867
17105,1075,858
17110,1074,856
17115,1073,860
17120,1069,857
17125,1065,856
17130,1072,853
17135,1060,858
17140,1056,855
17145,1057,850
17150,1059,857
17155,1050,853
17160,1047,854
17165,1040,851
17170,1041,846
17175,1036,846
17180,1018,848
17185,1018,848
17190,1025,842
17195,1011,841
17200,1003,847
17205,1001,835
17210,1007,843
17215,990,846
17220,987,842
17225,979,834
17230,983,839
17235,967,840
17240,963,838
17245,948,834
17250,947,836
17255,938,832
17260,935,832
17265,936,833
17270,914,832
17275,913,830
17280,900,831
17285,894,833
17290,882,828
17295,885,827
17300,867,836
17305,859,825
17310,860,826
17315,850,822
17320,842,829
17325,837,817
17330,825,825
17335,824,824
17340,816,816
17345,811,814
17350,811,813
17355,793,815
17360,788,810
17365,785,809
17370,776,810
17375,772,809
17380,766,804
17385,763,804
17390,758,802
17395,760,798
17400,757,796
17405,751,794
17410,745,789
17415,757,789
17420,758,788
17425,748,784
17430,750,774
17435,742,773
17440,731,775
17445,745,770
17450,758,771
17455,750,769
17460,751,762
17465,767,757
17470,760,755
17475,766,755
17480,768,753
17485,781,749
17490,782,748
17495,791,739
17500,806,741
17505,799,738
17510,804,734
17515,819,729
17520,827,732
17525,835,724
17530,850,726
17535,860,724
17540,868,724
17545,873,718
17550,875,708
17555,893,706
17560,901,714
17565,915,709
17570,923,712
17575,932,707
17580,947,709
17585,953,706
17590,964,705
17595,959,697
17600,980,706
17605,992,701
17610,1004,707
17615,1018,709
17620,1029,707
17625,1030,704
17630,1039,703
17635,1049,700
17640,1060,706
17645,1077,703
17650,1086,713
17655,1092,712
17660,1102,713
17665,1109,715
17670,1118,721
17675,1125,716
17680,1125,721
17685,1134,730
17690,1130,730
17695,1145,731
17700,1159,733
17705,1154,736
17710,1163,739
17715,1167,739
17720,1168,745
17725,1171,748
17730,1174,761
17735,1176,757
17740,1189,764
17745,1182,761
17750,1189,764
17755,1186,776
17760,1186,777
17765,1187,781
17770,1192,782
17775,1194,793
17780,1183,793
17785,1189,798
17790,1194,794
17795,1189,805
17800,1187,809
17805,1177,815
17810,1192,809
17815,1179,824
17820,1176,823
17825,1178,825
17830,1169,834
17835,1169,831
17840,1169,838
17845,1162,838
17850,1163,842
17855,1157,845
17860,1171,849
17865,1157,852
17870,1154,856
17875,1156,860
17880,1150,862
17885,1136,858
17890,1145,856
17895,1131,859
17900,1128,863
17905,1131,870
17910,1132,867
17915,1120,861
17920,1114,870
17925,1113,867
17930,1122,869
17935,1122,872
17940,1118,870
17945,1103,877
17950,1106,876
17955,1110,868
17960,1097,870
17965,1102,872
17970,1097,874
17975,1101,867
17980,1098,868
17985,1101,875
17990,1087,867
17995,1089,869
18000,1095,866
18005,1090,863
18010,1085,867
18015,1084,868
18020,1074,867
18025,1073,863
18030,1079,860
18035,1082,862
18040,1066,864
18045,1086,862
18050,1073,858
18055,1072,857
18060,1069,857
18065,1069,852
18070,1062,852
18075,1042,855
18080,1043,856
18085,1053,850
18090,1038,853
18095,1033,844
18100,1033,849
18105,1027,848
18110,1032,846
18115,1022,844
18120,1020,843
18125,1014,845
18130,1005,839
18135,1008,843
18140,994,843
18145,998,842
18150,988,842
18155,979,839
18160,970,835
18165,964,841
18170,964,838
18175,950,834
18180,942,835
18185,934,834
18190,925,836
18195,926,837
18200,911,837
18205,906,831
18210,900,832
18215,892,830
18220,885,830
18225,874,825
18230,869,826
18235,866,828
18240,854,828
18245,849,828
18250,832,829
18255,832,823
18260,823,819
18265,814,822
18270,811,818
18275,804,815
18280,798,812
18285,788,815
18290,779,804
18295,782,807
18300,776,806
18305,769,805
18310,760,800
18315,763,801
18320,750,798
18325,760,797
18330,749,794
18335,748,793
18340,744,783
18345,746,793
18350,753,783
18355,741,785
18360,749,781
18365,755,777
18370,745,777
18375,754,765
18380,746,770
18385,758,764
18390,753,764
18395,773,757
18400,766,760
18405,766,751
18410,772,752
18415,786,750
18420,785,744
18425,795,741
18430,803,739
18435,810,736
18440,816,736
18445,821,727
18450,828,726
18455,841,727
18460,845,725
18465,849,714
18470,867,718
18475,879,716
18480,883,713
18485,900,715
18490,908,710
18495,910,707
18500,926,712
18505,935,709
18510,944,710
18515,960,708
18520,968,700
18525,983,702
18530,978,701
18535,1000,699
18540,1011,700
18545,1016,706
18550,1032,704
18555,1041,701
18560,1044,703
18565,1062,705
18570,1063,709
18575,1078,701
18580,1088,709
18585,1090,713
18590,1100,718
18595,1097,720
18600,1115,717
18605,1123,721
18610,1122,722
18615,1136,725
18620,1150,733
18625,1151,732
18630,1154,734
18635,1158,737
18640,1166,749
18645,1164,749
18650,1170,751
18655,1176,751
18660,1178,758
18665,1177,760
18670,1182,762
18675,1181,766
18680,1183,772
18685,1184,774
18690,1185,779
18695,1179,781
18700,1193,791
18705,1189,793
18710,1196,795
18715,1186,798
18720,1183,804
18725,1192,804
18730,1184,814
18735,1182,810
18740,1184,815
18745,1173,814
18750,1174,823
18755,1178,831
18760,1174,834
18765,1156,835
18770,1164,841
18775,1163,846
18780,1156,837
18785,1163,849
18790,1166,848
18795,1147,850
18800,1148,853
18805,1154,850
18810,1140,859
18815,1137,860
18820,1126,863
18825,1133,863
18830,1115,865
18835,1126,863
18840,1123,866
18845,1130,868
18850,1121,865
18855,1122,872
18860,1115,868
18865,1116,869
18870,1117,869
18875,1107,871
18880,1105,871
18885,1109,874
18890,1100,868
18895,1099,867
18900,1097,871
18905,1098,868
18910,1091,869
18915,1095,868
18920,1085,866
18925,1092,867
18930,1092,871
18935,1082,873
18940,1088,873
18945,1093,861
18950,1078,860
18955,1075,862
18960,1073,865
18965,1075,863
18970,1069,861
18975,1076,860
18980,1069,861
18985,1070,854
18990,1073,860
18995,1050,847
19000,1065,855
19005,1043,851
19010,1051,853
19015,1032,853
19020,1045,846
19025,1042,847
19030,1034,845
19035,1033,847
19040,1031,841
19045,1013,838
19050,1012,846
19055,1019,844
19060,1005,837
19065,1003,839
19070,988,838
19075,980,834
19080,981,841
19085,976,839
19090,972,838
19095,963,836
19100,952,833
19105,946,836
19110,928,826
19115,933,839
19120,924,830
19125,917,831
19130,907,831
19135,903,832
19140,886,831
19145,884,828
19150,873,827
19155,869,823
19160,870,824
19165,857,825
19170,846,823
19175,842,824
19180,833,822
19185,826,817
19190,832,822
19195,811,823
19200,812,816
19205,806,813
19210,794,814
19215,782,810
19220,791,816
19225,771,808
19230,768,808
19235,767,806
19240,767,802
19245,765,798
19250,757,798
19255,746,799
19260,750,793
19265,748,792
19270,745,789
19275,747,782
19280,746,783
19285,749,780
19290,743,774
19295,754,777
19300,750,772
19305,746,768
19310,748,760
19315,757,762
19320,756,757
19325,767,759
19330,767,756
19335,765,752
19340,788,749
19345,787,743
19350,795,739
19355,792,740
19360,808,741
19365,805,732
19370,820,735
19375,830,733
19380,829,728
19385,842,726
19390,842,719
19395,864,716
19400,871,721
19405,886,712
19410,897,715
19415,898,712
19420,915,704
19425,912,710
19430,927,708
19435,939,705
19440,943,705
19445,966,703
19450,971,704
19455,973,703
19460,985,704
19465,1011,705
19470,1016,701
19475,1027,706
19480,1033,702
19485,1042,702
19490,1042,702
19495,1063,707
19500,1069,701
19505,1074,701
19510,1089,714
19515,1100,708
19520,1097,716
19525,1120,718
19530,1120,720
19535,1120,717
19540,1131,717
19545,1143,727
19550,1147,732
19555,1154,731
19560,1151,735
19565,1152,738
19570,1161,741
19575,1167,745
19580,1168,746
19585,1180,755
19590,1179,751
19595,1191,760
19600,1185,768
19605,1187,768
19610,1183,771
19615,1194,779
19620,1185,781
19625,1192,788
19630,1181,785
19635,1188,791
19640,1190,796
19645,1189,801
19650,1189,799
19655,1190,805
19660,1182,814
19665,1177,813
19670,1184,817
19675,1176,821
19680,1178,826
19685,1168,829
19690,1175,831
19695,1171,836
19700,1160,846
19705,1165,841
19710,1153,842
19715,1163,851
19720,1151,848
19725,1146,851
19730,1155,854
19735,1142,857
19740,1147,853
19745,1141,859
19750,1134,869
19755,1138,859
19760,1130,868
19765,1122,870
19770,1125,868
19775,1116,863
19780,1116,872
19785,1122,868
19790,1123,867
19795,1109,873
19800,1112,869
19805,1107,874
19810,1107,871
19815,1104,870
19820,1112,874
19825,1106,872
19830,1104,870
19835,1099,870
19840,1096,866
19845,1096,874
19850,1094,869
19855,1091,867
19860,1091,871
19865,1083,866
19870,1080,867
19875,1081,866
19880,1083,862
19885,1078,861
19890,1085,862
19895,1080,860
19900,1069,856
19905,1077,859
19910,1069,865
19915,1059,857
19920,1068,858
19925,1059,855
19930,1058,850
19935,1045,856
19940,1044,852
19945,1048,849
19950,1040,848
19955,1033,847
19960,1041,846
19965,1019,844
19970,1030,844
19975,1013,840
19980,1014,844
19985,1005,837
19990,1004,842
19995,994,832
20000,995,837
20005,984,837
20010,976,838
20015,973,837
20020,969,836
20025,956,833
20030,948,832
20035,950,831
20040,939,832
20045,932,835
20050,925,831
20055,905,832
20060,914,829
20065,898,829
20070,898,826
20075,890,832
20080,877,824
20085,872,827
20090,861,827
20095,852,828
20100,844,821
20105,831,818
20110,826,822
20115,826,819
20120,817,818
20125,803,815
20130,797,816
20135,795,817
20140,796,817
20145,785,809
20150,779,813
20155,774,809
20160,768,805
20165,771,802
20170,763,806
20175,759,800
20180,747,801
20185,758,795
20190,758,793
20195,752,795
20200,744,790
20205,743,788
20210,751,782
20215,748,780
20220,744,771
20225,746,776
20230,744,768
20235,756,765
20240,752,763
20245,754,765
20250,753,755
20255,764,763
20260,763,753
20265,782,751
20270,780,746
20275,785,745
20280,791,736
20285,804,739
20290,803,734
20295,804,739
20300,821,727
20305,825,727
20310,828,726
20315,848,728
20320,853,721
20325,874,713
20330,870,717
20335,894,717
20340,898,712
20345,906,710
20350,917,713
20355,926,704
20360,932,708
20365,942,707
20370,970,700
20375,968,707
20380,975,701
20385,977,704
20390,1003,695
20395,1001,702
20400,1017,702
20405,1026,707
20410,1031,704
20415,1046,702
20420,1051,705
20425,1065,712
20430,1073,711
20435,1079,705
20440,1092,711
20445,1101,715
20450,1107,715
20455,1112,713
20460,1124,727
20465,1126,723
20470,1136,726
20475,1132,731
20480,1145,729
20485,1160,737
20490,1158,742
20495,1159,741
20500,1163,742
20505,1174,745
20510,1168,753
20515,1180,755
20520,1175,760
20525,1182,763
20530,1191,763
20535,1189,765
20540,1188,777
20545,1190,779
20550,1184,786
20555,1181,792
20560,1188,781
20565,1186,796
20570,1193,795
20575,1179,802
20580,1185,805
20585,1179,805
20590,1187,814
20595,1182,817
20600,1173,818
20605,1172,825
20610,1181,833
20615,1169,833
20620,1161,833
20625,1168,835
20630,1163,841
20635,1166,844
20640,1167,847
20645,1148,848
20650,1149,850
20655,1153,851
20660,1148,859
20665,1144,852
20670,1145,861
20675,1136,865
20680,1137,860
20685,1132,865
20690,1125,868
20695,1123,868
20700,1119,871
20705,1118,865
20710,1112,871
20715,1106,873
20720,1123,871
20725,1111,874
20730,1115,868
20735,1107,867
20740,1104,871
20745,1104,871
20750,1099,877
20755,1096,871
20760,1091,867
20765,1103,872
20770,1093,869
20775,1096,873
20780,1097,866
20785,1087,865
20790,1089,868
20795,1081,868
20800,1086,863
20805,1092,866
20810,1085,866
20815,1078,865
20820,1072,857
20825,1075,861
20830,1069,858
20835,1084,859
20840,1066,861
20845,1050,856
20850,1070,854
20855,1051,853
20860,1056,850
20865,1047,856
20870,1043,847
20875,1045,844
20880,1045,849
20885,1040,845
20890,1028,852
20895,1021,844
20900,1018,844
20905,1028,841
20910,1004,845
20915,997,843
20920,1006,842
20925,984,840
20930,993,839
20935,974,838
20940,969,840
20945,973,834
20950,969,835
20955,963,834
20960,950,837
20965,947,838
20970,936,832
20975,933,835
20980,926,830
20985,914,836
20990,896,825
20995,898,824
21000,886,828
21005,878,829
21010,878,824
21015,866,829
21020,854,827
21025,859,822
21030,839,830
21035,834,823
21040,833,819
21045,814,820
21050,817,817
21055,816,820
21060,801,813
21065,798,811
21070,789,810
21075,774,808
21080,782,807
21085,771,807
21090,775,803
21095,767,802
21100,758,801
21105,760,798
21110,758,796
21115,763,795
21120,746,791
21125,754,792
21130,753,787
21135,747,783
21140,749,778
21145,753,774
21150,750,775
21155,748,778
21160,756,769
21165,739,768
21170,748,771
21175,760,762
21180,767,753
21185,771,755
21190,771,748
21195,781,749
21200,785,743
21205,781,742
21210,799,743
21215,811,735
21220,805,742
21225,821,737
21230,820,727
21235,830,726
21240,842,727
21245,848,718
21250,862,719
21255,872,714
21260,889,715
21265,888,717
21270,907,709
21275,904,712
21280,917,706
21285,926,706
21290,943,705
21295,944,708
21300,957,705
21305,974,704
21310,983,698
21315,986,702
21320,999,705
21325,1017,703
21330,1020,705
21335,1042,702
21340,1049,705
21345,1049,708
21350,1065,707
21355,1065,710
21360,1077,707
21365,1081,708
21370,1099,712
21375,1093,714
21380,1115,713
21385,1113,715
21390,1120,718
21395,1142,725
21400,1133,724
21405,1139,724
21410,1155,730
21415,1159,731
21420,1155,745
21425,1159,747
21430,1168,746
21435,1178,744
21440,1173,750
21445,1171,757
21450,1167,757
21455,1184,763
21460,1178,762
21465,1180,769
21470,1190,776
21475,1189,777
21480,1188,785
21485,1191,790
21490,1188,790
21495,1181,795
21500,1183,802
21505,1174,804
21510,1188,805
21515,1191,814
21520,1179,815
21525,1177,813
21530,1175,823
21535,1176,827
21540,1170,823
21545,1184,829
21550,1162,836
21555,1157,838
21560,1162,839
21565,1164,846
21570,1161,848
21575,1157,849
21580,1158,851
21585,1145,855
21590,1150,858
21595,1146,856
21600,1145,856
21605,1135,864
21610,1129,866
21615,1128,866
21620,1128,868
21625,1118,865
21630,1132,865
21635,1128,873
21640,1112,868
21645,1114,871
21650,1113,868
21655,1108,875
21660,1109,873
21665,1101,874
21670,1104,873
21675,1099,874
21680,1102,868
21685,1091,867
21690,1102,873
21695,1100,869
21700,1090,871
21705,1088,866
21710,1091,868
21715,1089,870
21720,1067,865
21725,1096,863
21730,1079,868
21735,1079,865
21740,1080,862
21745,1072,863
21750,1077,856
21755,1078,858
21760,1067,856
21765,1074,860
21770,1069,852
21775,1056,859
21780,1059,854
21785,1057,853
21790,1046,850
21795,1051,850
21800,1044,848
21805,1045,849
21810,1033,845
21815,1029,843
21820,1029,849
21825,1020,848
21830,1018,846
21835,1019,845
21840,1016,844
21845,1003,842
21850,1003,838
21855,993,841
21860,990,840
21865,980,840
21870,978,839
21875,969,839
21880,964,837
21885,954,831
21890,945,833
21895,932,828
21900,922,836
21905,933,829
21910,909,833
21915,905,831
21920,905,836
21925,905,833
21930,883,831
21935,880,838
21940,874,825
21945,865,823
21950,848,829
21955,846,824
21960,845,822
21965,822,819
21970,827,820
21975,817,820
21980,810,822
21985,796,816
21990,799,814
21995,787,812
22000,780,816
22005,782,811
22010,774,808
22015,767,806
22020,769,800
22025,749,799
22030,763,803
22035,755,794
22040,762,799
22045,749,791
22050,759,791
22055,750,783
22060,756,784
22065,756,782
22070,745,781
22075,754,777
22080,753,774
22085,749,771
22090,749,772
22095,755,766
22100,758,765
22105,757,756
22110,762,759
22115,770,749
22120,780,746
22125,779,748
22130,781,745
22135,799,743
22140,795,738
22145,802,734
22150,814,737
22155,824,729
22160,826,728
22165,833,730
22170,838,722
22175,863,721
22180,863,717
22185,876,712
22190,882,709
22195,895,718
22200,904,708
22205,906,716
22210,923,711
22215,940,710
22220,938,703
22225,955,701
22230,961,705
22235,977,706
22240,983,711
22245,994,702
22250,1000,701
22255,1017,704
22260,1026,708
22265,1037,703
22270,1043,701
22275,1054,706
22280,1069,698
22285,1072,708
22290,1075,707
22295,1091,712
22300,1090,711
22305,1112,719
22310,1115,717
22315,1119,721
22320,1119,725
22325,1138,724
22330,1146,729
22335,1148,736
22340,1148,733
22345,1156,734
22350,1157,740
22355,1165,746
22360,1159,746
22365,1178,743
22370,1174,756
22375,1174,756
22380,1190,760
22385,1179,762
22390,1172,769
22395,1193,771
22400,1196,772
22405,1188,778
22410,1189,782
22415,1181,790
22420,1199,789
22425,1180,797
22430,1192,803
22435,1178,803
22440,1184,811
22445,1183,817
22450,1183,816
22455,1180,817
22460,1174,825
22465,1176,826
22470,1183,841
22475,1173,838
22480,1166,838
22485,1164,842
22490,1162,843
22495,1153,849
22500,1160,844
22505,1152,850
22510,1148,850
22515,1155,858
22520,1147,863
22525,1141,863
22530,1134,860
22535,1136,855
22540,1139,868
22545,1135,870
22550,1130,866
22555,1122,870
22560,1129,868
22565,1117,870
22570,1120,871
22575,1113,869
22580,1118,872
22585,1105,872
22590,1105,874
22595,1107,864
22600,1109,871
22605,1100,869
22610,1095,871
22615,1096,873
22620,1099,868
22625,1090,869
22630,1099,862
22635,1096,869
22640,1095,868
22645,1094,867
22650,1086,867
22655,1081,867
22660,1091,861
22665,1072,856
22670,1074,861
22675,1073,855
22680,1073,860
22685,1076,860
22690,1069,863
22695,1069,855
22700,1071,853
22705,1060,856
22710,1063,860
22715,1047,852
22720,1056,849
22725,1044,853
22730,1050,846
22735,1041,849
22740,1035,847
22745,1034,844
22750,1023,848
22755,1024,843
22760,1022,848
22765,1007,841
22770,1014,842
22775,1003,839
22780,994,845
22785,994,837
22790,982,838
22795,980,839
22800,969,841
22805,968,839
22810,954,836
22815,946,831
22820,941,835
22825,938,840
22830,931,834
22835,918,839
22840,910,836
22845,907,827
22850,892,833
22855,886,831
22860,880,825
22865,872,821
22870,868,826
22875,865,825
22880,850,822
22885,840,825
22890,835,821
22895,830,817
22900,821,818
22905,815,821
22910,814,815
22915,814,804
22920,796,813
22925,791,809
22930,790,807
22935,773,806
22940,781,806
22945,773,804
22950,770,803
22955,759,803
22960,761,801
22965,761,799
22970,760,794
22975,754,792
22980,755,783
22985,743,785
22990,748,785
22995,739,779
23000,747,777
23005,753,772
23010,760,768
23015,755,770
23020,754,765
23025,758,764
23030,758,757
23035,760,762
23040,766,755
23045,763,755
23050,775,751
23055,784,751
23060,778,744
23065,791,738
23070,807,736
23075,805,733
23080,817,730
23085,827,728
23090,835,730
23095,843,726
23100,848,722
23105,853,725
23110,870,718
23115,880,719
23120,894,714
23125,895,710
23130,909,706
23135,916,710
23140,929,708
23145,947,705
23150,946,706
23155,951,703
23160,966,705
23165,979,704
23170,988,701
23175,986,699
23180,1003,697
23185,1022,702
23190,1034,702
23195,1034,703
23200,1054,703
23205,1065,704
23210,1063,712
23215,1083,709
23220,1088,716
23225,1092,710
23230,1100,711
23235,1113,715
23240,1125,718
23245,1124,719
23250,1131,725
23255,1136,723
23260,1141,727
23265,1145,728
23270,1153,735
23275,1159,745
23280,1171,738
23285,1167,748
23290,1161,751
23295,1176,753
23300,1179,754
23305,1182,760
23310,1193,762
23315,1181,769
23320,1189,773
23325,1187,770
23330,1186,778
23335,1181,780
23340,1188,784
23345,1187,789
23350,1194,797
23355,1180,798
23360,1178,800
23365,1179,804
23370,1189,807
23375,1186,817
23380,1172,817
23385,1173,821
23390,1180,829
23395,1173,829
23400,1179,831
23405,1173,835
23410,1177,840
23415,1149,840
23420,1158,843
23425,1154,849
23430,1164,850
23435,1157,852
23440,1147,851
23445,1157,851
23450,1146,856
23455,1136,859
23460,1135,861
23465,1135,860
23470,1130,863
23475,1128,866
23480,1125,871
23485,1124,868
23490,1122,870
23495,1115,870
23500,1115,875
23505,1116,870
23510,1113,873
23515,1107,867
23520,1114,871
23525,1108,869
23530,1109,869
23535,1096,864
23540,1104,876
23545,1099,870
23550,1098,870
23555,1109,869
23560,1095,867
23565,1095,870
23570,1083,865
23575,1089,862
23580,1081,866
23585,1078,861
23590,1088,862
23595,1078,864
23600,1079,863
23605,1088,859
23610,1080,860
23615,1072,859
23620,1061,856
23625,1064,855
23630,1060,858
23635,1064,854
23640,1057,852
23645,1053,852
23650,1055,849
23655,1046,852
23660,1043,849
23665,1036,847
23670,1035,845
23675,1036,843
23680,1011,843
23685,1016,844
23690,1024,844
23695,998,836
23700,1007,842
23705,994,845
23710,984,842
23715,982,837
23720,979,838
23725,973,837
23730,975,838
23735,968,828
23740,949,832
23745,945,828
23750,939,831
23755,933,837
23760,915,831
23765,919,834
23770,906,831
23775,900,829
23780,890,826
23785,888,826
23790,887,819
23795,872,827
23800,864,823
23805,853,823
23810,846,825
23815,838,825
23820,838,823
23825,823,829
23830,819,821
23835,817,815
23840,805,814
23845,798,816
23850,798,816
23855,781,811
23860,782,811
23865,785,805
23870,765,808
23875,771,808
23880,759,798
23885,756,797
23890,749,800
23895,756,799
23900,751,799
23905,753,783
23910,756,795
23915,754,787
23920,744,790
23925,747,779
23930,749,778
23935,749,773
23940,750,771
23945,745,771
23950,750,766
23955,761,764
23960,768,764
23965,773,756
23970,780,752
23975,782,751
23980,778,746
23985,786,743
23990,791,742
23995,803,743
24000,806,734
24005,813,729
24010,813,733
24015,818,723
24020,837,726
24025,850,721
24030,857,719
24035,861,714
24040,874,716
24045,885,713
24050,896,710
24055,894,716
24060,909,711
24065,914,710
24070,934,709
24075,943,712
24080,954,704
24085,958,698
24090,974,704
24095,985,707
24100,994,700
24105,1009,705
24110,1014,706
24115,1026,703
24120,1027,710
24125,1041,706
24130,1052,713
24135,1063,709
24140,1067,710
24145,1080,707
24150,1084,709
24155,1107,716
24160,1113,709
24165,1104,719
24170,1123,719
24175,1117,719
24180,1136,721
24185,1142,730
24190,1141,732
24195,1159,732
24200,1148,733
24205,1166,743
24210,1169,751
24215,1168,746
24220,1174,755
24225,1175,747
24230,1182,760
24235,1174,761
24240,1189,763
24245,1181,770
24250,1194,769
24255,1182,777
24260,1187,778
24265,1183,785
24270,1185,789
24275,1194,796
24280,1186,798
24285,1181,802
24290,1191,803
24295,1180,808
24300,1190,815
24305,1174,813
24310,1177,823
24315,1180,822
24320,1179,833
24325,1169,830
24330,1174,833
24335,1164,835
24340,1160,841
24345,1168,844
24350,1158,847
24355,1157,847
24360,1150,852
24365,1151,852
24370,1143,858
24375,1142,857
24380,1147,859
24385,1145,864
24390,1134,861
24395,1137,864
24400,1134,867
24405,1127,867
24410,1129,869
24415,1124,867
24420,1115,871
24425,1118,870
24430,1126,877
24435,1112,873
24440,1109,875
24445,1119,875
24450,1110,866
24455,1108,868
24460,1103,870
24465,1095,877
24470,1105,868
24475,1096,872
24480,1100,869
24485,1090,866
24490,1093,869
24495,1088,864
24500,1087,862
24505,1093,864
24510,1085,865
24515,1094,868
24520,1075,861
24525,1078,864
24530,1079,859
24535,1079,862
24540,1067,860
24545,1070,859
24550,1070,857
24555,1067,854
24560,1066,860
24565,1056,854
24570,1053,856
24575,1057,849
24580,1044,849
24585,1053,851
24590,1039,846
24595,1035,848
24600,1034,852
24605,1026,846
24610,1028,842
24615,1017,848
24620,1012,846
24625,1015,840
24630,1001,843
24635,999,844
24640,989,839
24645,978,842
24650,971,836
24655,968,837
24660,974,838
24665,948,840
24670,943,835
24675,953,831
24680,945,831
24685,928,831
24690,918,833
24695,919,829
24700,896,834
24705,890,832
24710,891,824
24715,880,828
24720,878,829
24725,866,826
24730,861,827
24735,857,825
24740,842,823
24745,839,822
24750,828,823
24755,823,820
24760,813,817
24765,813,819
24770,801,815
24775,795,815
24780,787,811
24785,785,811
24790,777,809
24795,779,806
24800,770,808
24805,767,803
24810,767,802
24815,757,802
24820,758,798
24825,754,796
24830,755,794
24835,746,787
24840,744,781
24845,746,788
24850,748,786
24855,750,773
24860,747,781
24865,744,775
24870,751,769
24875,750,770
24880,757,764
24885,765,762
24890,756,755
24895,758,755
24900,772,750
24905,773,747
24910,784,747
24915,792,744
24920,787,742
24925,806,735
24930,806,736
24935,820,738
24940,829,732
24945,825,725
24950,836,725
24955,841,722
24960,851,718
24965,871,722
24970,890,716
24975,884,715
24980,898,707
24985,914,710
24990,912,713
24995,920,710
25000,932,701
25005,946,706
25010,959,704
25015,968,708
25020,976,704
25025,992,704
25030,997,702
25035,1000,706
25040,1014,703
25045,1032,700
25050,1044,705
25055,1053,704
25060,1057,708
25065,1069,708
25070,1079,708
25075,1079,712
25080,1095,702
25085,1100,710
25090,1108,712
25095,1109,713
25100,1123,723
25105,1131,719
25110,1137,723
25115,1144,726
25120,1148,724
25125,1152,730
25130,1160,735
25135,1166,738
25140,1159,745
25145,1168,748
25150,1172,749
25155,1178,750
25160,1186,759
25165,1184,759
25170,1188,765
25175,1181,770
25180,1194,777
25185,1195,773
25190,1193,787
25195,1187,792
25200,1189,789
25205,1190,795
25210,1182,796
25215,1183,802
25220,1188,813
25225,1182,808
25230,1174,819
25235,1171,815
25240,1183,823
25245,1173,823
25250,1177,828
25255,1169,830
25260,1176,833
25265,1159,837
25270,1166,842
25275,1158,847
25280,1166,845
25285,1160,850
25290,1152,851
25295,1144,846
25300,1142,854
25305,1145,859
25310,1135,857
25315,1142,860
25320,1135,865
25325,1129,863
25330,1138,866
25335,1128,868
25340,1119,863
25345,1120,866
25350,1114,868
25355,1115,872
25360,1116,875
25365,1122,871
25370,1111,868
25375,1100,877
25380,1117,875
25385,1105,874
25390,1104,871
25395,1102,875
25400,1095,871
25405,1098,870
25410,1102,873
25415,1094,873
25420,1094,866
25425,1092,870
25430,1091,861
25435,1073,863
25440,1082,867
25445,1080,864
25450,1077,865
25455,1077,862
25460,1073,863
25465,1069,863
25470,1086,855
25475,1067,855
25480,1067,857
25485,1065,855
25490,1053,856
25495,1056,851
25500,1057,852
25505,1054,849
25510,1045,852
25515,1036,848
25520,1043,844
25525,1027,848
25530,1032,846
25535,1028,850
25540,1011,845
25545,1014,839
25550,1019,846
25555,1013,843
25560,1002,844
25565,991,840
25570,991,840
25575,980,839
25580,964,839
25585,963,839
25590,969,831
25595,946,840
25600,948,833
25605,944,833
25610,935,834
25615,921,835
25620,913,832
25625,915,829
25630,893,831
25635,897,829
25640,899,827
25645,883,828
25650,869,829
25655,859,823
25660,852,822
25665,849,824
25670,835,828
25675,837,825
25680,830,819
25685,817,819
25690,816,819
25695,807,817
25700,792,815
25705,796,817
25710,786,807
25715,775,808
25720,776,807
25725,781,809
25730,782,808
25735,770,801
25740,763,805
25745,752,798
25750,756,799
25755,755,791
25760,759,791
25765,749,791
25770,749,785
25775,754,780
25780,740,780
25785,741,783
25790,756,770
25795,754,772
25800,751,772
25805,761,767
25810,750,756
25815,762,757
25820,768,750
25825,756,755
25830,774,749
25835,767,748
25840,782,744
25845,796,746
25850,794,739
25855,783,741
25860,815,734
25865,824,731
25870,826,730
25875,837,721
25880,849,723
25885,851,723
25890,867,720
25895,862,718
25900,880,718
25905,886,712
25910,907,712
25915,912,712
25920,918,707
25925,940,706
25930,941,704
25935,954,704
25940,954,704
25945,976,706
25950,989,703
25955,996,708
25960,1013,708
25965,1025,708
25970,1030,700
25975,1030,708
25980,1038,708
25985,1046,701
25990,1067,707
25995,1059,709
26000,1086,711
26005,1083,710
26010,1107,709
26015,1103,713
26020,1111,713
26025,1114,716
26030,1129,723
26035,1127,727
26040,1135,727
26045,1156,731
26050,1154,731
26055,1148,735
26060,1161,737
26065,1166,742
26070,1164,745
26075,1170,753
26080,1172,753
26085,1179,760
26090,1182,756
26095,1181,767
26100,1189,772
26105,1189,771
26110,1187,772
26115,1193,779
26120,1185,784
26125,1191,786
26130,1182,790
26135,1179,793
26140,1191,800
26145,1180,805
26150,1189,810
26155,1179,814
26160,1181,814
26165,1173,813
26170,1181,819
26175,1169,830
26180,1176,831
26185,1166,834
26190,1170,832
26195,1161,841
26200,1157,838
26205,1164,851
26210,1153,847
26215,1154,850
26220,1149,858
26225,1146,850
26230,1153,861
26235,1147,861
26240,1142,865
26245,1136,860
26250,1140,866
26255,1132,864
26260,1124,868
26265,1127,868
26270,1121,868
26275,1122,871
26280,1118,872
26285,1118,871
26290,1110,881
26295,1114,866
26300,1106,870
26305,1110,871
26310,1101,871
26315,1105,876
26320,1102,871
26325,1105,869
26330,1090,874
26335,1097,869
26340,1085,872
26345,1091,870
26350,1094,871
26355,1084,867
26360,1088,868
26365,1083,863
26370,1080,868
26375,1083,866
26380,1088,859
26385,1080,856
26390,1076,860
26395,1069,857
26400,1068,856
26405,1063,859
26410,1066,856
26415,1068,858
26420,1058,852
26425,1053,849
26430,1051,848
26435,1053,851
26440,1049,847
26445,1044,849
26450,1046,849
26455,1032,851
26460,1037,850
26465,1009,845
26470,1018,841
26475,1012,845
26480,1012,844
26485,1005,843
26490,995,848
26495,993,839
26500,988,837
26505,976,841
26510,987,845
26515,970,837
26520,961,838
26525,947,836
26530,942,835
26535,937,836
26540,926,831
26545,916,835
26550,913,834
26555,907,832
26560,900,831
26565,892,828
26570,885,825
26575,875,827
26580,871,827
26585,858,820
26590,855,823
26595,836,823
26600,841,824
26605,821,822
26610,827,818
26615,819,819
26620,810,817
26625,795,813
26630,800,815
26635,788,814
26640,786,809
26645,778,807
26650,766,804
26655,773,808
26660,769,802
26665,769,800
26670,756,799
26675,762,798
26680,760,795
26685,751,789
26690,750,789
26695,754,783
26700,749,780
26705,748,783
26710,750,782
26715,754,776
26720,758,780
26725,754,771
26730,751,770
26735,759,760
26740,763,763
26745,757,755
26750,765,756
26755,767,756
26760,776,749
26765,778,746
26770,775,747
26775,787,742
26780,800,738
26785,806,733
26790,812,729
26795,820,733
26800,829,724
26805,832,726
26810,847,725
26815,855,723
26820,870,719
26825,872,719
26830,891,715
26835,894,714
26840,905,715
26845,912,712
26850,922,707
26855,935,702
26860,943,705
26865,963,710
26870,961,700
26875,972,702
26880,997,706
26885,986,697
26890,1003,704
26895,1019,704
26900,1020,709
26905,1035,699
26910,1053,705
26915,1059,711
26920,1069,707
26925,1075,710
26930,1084,705
26935,1097,712
26940,1097,713
26945,1114,716
26950,1115,718
26955,1118,716
26960,1132,726
26965,1141,723
26970,1152,731
26975,1145,734
26980,1158,737
26985,1157,744
26990,1167,736
26995,1165,742
27000,1167,748
27005,1181,751
27010,1176,756
27015,1183,760
27020,1175,756
27025,1189,763
27030,1185,769
27035,1191,780
27040,1189,779
27045,1193,780
27050,1184,787
27055,1191,794
27060,1192,796
27065,1186,798
27070,1188,800
27075,1187,804
27080,1190,809
27085,1178,820
27090,1180,817
27095,1178,821
27100,1177,818
27105,1171,827
27110,1167,832
27115,1172,826
27120,1176,834
27125,1176,837
27130,1164,843
27135,1155,843
27140,1159,850
27145,1149,851
27150,1144,854
27155,1143,854
27160,1143,856
27165,1144,863
27170,1141,853
27175,1134,866
27180,1129,866
27185,1134,869
27190,1126,866
27195,1121,869
27200,1118,865
27205,1118,866
27210,1113,870
27215,1118,874
27220,1119,870
27225,1105,875
27230,1107,868
27235,1091,875
27240,1108,870
27245,1097,872
27250,1107,870
27255,1101,868
27260,1093,872
27265,1106,870
27270,1106,873
27275,1100,870
27280,1103,871
27285,1083,872
27290,1090,867
27295,1090,866
27300,1084,862
27305,1084,859
27310,1077,858
27315,1072,860
27320,1071,862
27325,1074,859
27330,1075,861
27335,1060,855
27340,1062,853
27345,1064,855
27350,1055,856
27355,1054,847
27360,1053,852
27365,1046,849
27370,1042,852
27375,1038,841
27380,1034,849
27385,1030,849
27390,1031,845
27395,1031,840
27400,1015,844
27405,1017,843
27410,1009,844
27415,996,841
27420,992,839
27425,994,844
27430,992,835
27435,976,837
27440,967,835
27445,960,832
27450,955,841
27455,948,830
27460,934,835
27465,938,836
27470,922,833
27475,919,833
27480,912,830
27485,902,831
27490,895,824
27495,889,829
27500,883,827
27505,868,824
27510,860,828
27515,862,824
27520,849,823
27525,850,817
27530,835,818
27535,827,820
27540,818,817
27545,821,819
27550,808,815
27555,803,813
27560,798,815
27565,788,813
27570,786,802
27575,780,809
27580,780,810
27585,777,806
27590,769,802
27595,760,804
27600,753,795
27605,749,793
27610,759,794
27615,755,792
27620,746,789
27625,744,785
27630,749,786
27635,751,782
27640,746,776
27645,751,773
27650,741,767
27655,761,768
27660,748,760
27665,755,762
27670,764,765
27675,764,757
27680,770,755
27685,777,753
27690,783,751
27695,779,744
27700,791,744
27705,795,745
27710,806,734
27715,807,741
27720,816,726
27725,831,730
27730,841,726
27735,839,723
27740,850,721
27745,864,725
27750,859,716
27755,872,716
27760,893,713
27765,899,706
27770,903,709
27775,922,711
27780,928,709
27785,941,699
27790,951,704
27795,961,707
27800,972,705
27805,977,706
27810,1001,703
27815,1000,702
27820,1007,711
27825,1019,708
27830,1029,701
27835,1039,703
27840,1046,702
27845,1057,705
27850,1069,705
27855,1071,713
27860,1098,716
27865,1080,715
27870,1110,717
27875,1114,716
27880,1114,716
27885,1126,719
27890,1133,724
27895,1141,727
27900,1154,729
27905,1136,735
27910,1154,739
27915,1157,746
27920,1162,743
27925,1170,741
27930,1172,750
27935,1174,753
27940,1174,751
27945,1172,762
27950,1183,764
27955,1176,765
27960,1193,770
27965,1187,774
27970,1181,779
27975,1193,783
27980,1183,787
27985,1187,793
27990,1190,793
27995,1184,796
28000,1185,803
28005,1175,809
28010,1190,812
28015,1178,820
28020,1177,815
28025,1179,818
28030,1180,825
28035,1169,829
28040,1160,834
28045,1168,840
28050,1165,840
28055,1161,839
28060,1164,842
28065,1152,849
28070,1163,851
28075,1157,849
28080,1153,856
28085,1145,853
28090,1144,860
28095,1138,862
28100,1133,862
28105,1129,863
28110,1144,869
28115,1130,871
28120,1130,868
28125,1137,871
28130,1130,865
28135,1124,867
28140,1123,867
28145,1109,872
28150,1111,874
28155,1107,877
28160,1112,875
28165,1106,867
28170,1101,871
28175,1102,872
28180,1105,873
28185,1098,871
28190,1095,867
28195,1097,875
28200,1092,864
28205,1089,865
28210,1084,863
28215,1088,862
28220,1083,865
28225,1081,864
28230,1090,868
28235,1078,862
28240,1081,863
28245,1082,859
28250,1070,863
28255,1068,855
28260,1066,854
28265,1069,861
28270,1063,857
28275,1045,852
28280,1059,856
28285,1050,846
28290,1053,852
28295,1033,855
28300,1037,850
28305,1029,850
28310,1033,849
28315,1036,844
28320,1023,847
28325,1019,846
28330,1019,845
28335,1007,846
28340,1011,840
28345,997,841
28350,984,840
28355,988,839
28360,978,840
28365,974,837
28370,969,831
28375,952,835
28380,956,838
28385,943,835
28390,927,830
28395,926,836
28400,927,834
28405,922,828
28410,906,834
28415,903,829
28420,887,827
28425,892,830
28430,872,830
28435,873,822
28440,859,822
28445,851,823
28450,847,827
28455,838,819
28460,839,821
28465,828,829
28470,818,820
28475,807,817
28480,801,816
28485,803,817
28490,797,812
28495,788,814
28500,779,811
28505,779,807
28510,766,805
28515,779,803
28520,777,800
28525,759,804
28530,761,797
28535,752,799
28540,748,791
28545,748,796
28550,746,787
28555,758,787
28560,754,782
28565,752,780
28570,757,779
28575,747,775
28580,748,766
28585,750,765
28590,759,765
28595,758,764
28600,762,760
28605,773,758
28610,772,753
28615,767,748
28620,770,749
28625,796,743
28630,799,741
28635,794,742
28640,810,736
28645,811,731
28650,825,728
28655,824,733
28660,828,720
28665,849,723
28670,855,722
28675,861,721
28680,872,718
28685,886,723
28690,897,715
28695,907,710
28700,918,705
28705,927,709
28710,931,708
28715,948,705
28720,953,708
28725,962,704
28730,982,706
28735,986,700
28740,992,705
28745,1007,701
28750,1017,704
28755,1030,709
28760,1046,699
28765,1047,709
28770,1056,706
28775,1070,706
28780,1073,706
28785,1079,710
28790,1081,708
28795,1098,715
28800,1095,709
28805,1111,718
28810,1120,711
28815,1118,725
28820,1137,727
28825,1140,730
28830,1145,731
28835,1146,737
28840,1162,732
28845,1164,738
28850,1164,741
28855,1163,750
28860,1174,751
28865,1172,751
28870,1177,754
28875,1177,765
28880,1181,762
28885,1188,765
28890,1182,772
28895,1191,779
28900,1189,786
28905,1195,787
28910,1190,790
28915,1181,791
28920,1186,795
28925,1189,801
28930,1186,801
28935,1185,809
28940,1185,815
28945,1184,819
28950,1185,818
28955,1172,824
28960,1178,823
28965,1174,831
28970,1170,834
28975,1163,834
28980,1170,843
28985,1165,847
28990,1163,850
28995,1158,845
29000,1150,850
29005,1148,857
29010,1152,858
29015,1142,856
29020,1141,860
29025,1132,865
29030,1143,867
29035,1127,861
29040,1130,867
29045,1122,869
29050,1125,865
29055,1126,867
29060,1122,865
29065,1121,875
29070,1121,871
29075,1116,872
29080,1117,871
29085,1104,872
29090,1103,874
29095,1109,871
29100,1103,875
29105,1098,868
29110,1098,873
29115,1099,870
29120,1098,863
29125,1092,875
29130,1102,871
29135,1102,868
29140,1089,866
29145,1081,863
29150,1080,861
29155,1082,864
29160,1081,864
29165,1077,862
29170,1079,857
29175,1080,859
29180,1069,861
29185,1063,861
29190,1070,857
29195,1063,855
29200,1056,855
29205,1054,853
29210,1063,849
29215,1054,850
29220,1056,846
29225,1043,849
29230,1029,847
29235,1034,845
29240,1029,843
29245,1027,848
29250,1022,845
29255,1024,844
29260,1010,842
29265,1005,845
29270,1001,841
29275,991,839
29280,987,840
29285,985,838
29290,970,841
29295,973,838
29300,957,839
29305,960,831
29310,952,834
29315,944,828
29320,932,835
29325,932,831
29330,917,836
29335,917,833
29340,905,831
29345,903,831
29350,889,829
29355,885,832
29360,871,826
29365,864,829
29370,861,826
29375,848,828
29380,835,825
29385,840,817
29390,834,820
29395,816,817
29400,816,813
29405,807,817
29410,796,817
29415,793,818
29420,780,814
29425,781,810
29430,785,807
29435,776,808
29440,765,805
29445,774,806
29450,758,801
29455,757,799
29460,761,795
29465,756,799
29470,752,786
29475,747,786
29480,742,788
29485,748,781
29490,750,782
29495,739,776
29500,744,777
29505,749,772
29510,746,773
29515,746,767
29520,755,762
29525,757,759
29530,755,760
29535,771,758
29540,770,751
29545,786,750
29550,783,748
29555,784,740
29560,797,738
29565,799,735
29570,808,731
29575,812,735
29580,816,735
29585,829,729
29590,841,727
29595,859,722
29600,854,719
29605,871,715
29610,881,712
29615,882,713
29620,896,709
29625,906,712
29630,924,710
29635,931,707
29640,940,700
29645,947,712
29650,955,704
29655,970,706
29660,991,702
29665,990,706
29670,1006,702
29675,1011,704
29680,1021,701
29685,1035,701
29690,1040,707
29695,1048,700
29700,1063,706
29705,1057,709
29710,1072,708
29715,1094,713
29720,1085,708
29725,1106,713
29730,1111,713
29735,1125,715
29740,1121,718
29745,1131,719
29750,1131,726
29755,1153,726
29760,1146,735
29765,1153,735
29770,1153,737
29775,1157,744
29780,1165,754
29785,1173,742
29790,1173,751
29795,1183,754
29800,1179,759
29805,1189,763
29810,1187,766
29815,1178,775
29820,1192,771
29825,1179,779
29830,1180,782
29835,1184,780
29840,1196,795
29845,1187,792
29850,1188,803
29855,1185,807
29860,1192,805
29865,1187,813
29870,1184,816
29875,1172,814
29880,1177,822
29885,1174,822
29890,1176,831
29895,1172,828
29900,1174,833
29905,1161,835
29910,1170,840
29915,1173,845
29920,1156,850
29925,1153,850
29930,1152,851
29935,1152,853
29940,1154,858
29945,1146,855
29950,1145,862
29955,1131,862
29960,1141,861
29965,1134,866
29970,1129,861
29975,1131,865
29980,1120,868
29985,1122,866
29990,1122,874
29995,1116,873
30000,1109,870
30005,1112,872
30010,1108,869
30015,1105,874
30020,1115,869
30025,1103,871
30030,1104,868
30035,1107,871
30040,1099,869
30045,1098,861
30050,1096,871
30055,1096,868
30060,1086,869
30065,1089,870
30070,1085,867
30075,1077,868
30080,1097,862
30085,1072,869
30090,1078,864
30095,1074,860
30100,1075,854
30105,1070,863
30110,1076,860
30115,1068,862
30120,1071,856
30125,1061,854
30130,1058,852
30135,1059,856
30140,1056,856
30145,1052,849
30150,1046,849
30155,1039,849
30160,1037,850
30165,1033,847
30170,1033,848
30175,1025,850
30180,1026,842
30185,1020,841
30190,1008,844
30195,1003,840
30200,1000,839
30205,986,839
30210,982,835
30215,983,837
30220,967,838
30225,963,841
30230,962,838
30235,960,840
30240,953,833
30245,933,839
30250,933,840
30255,920,835
30260,921,831
30265,906,835
30270,893,832
30275,896,830
30280,887,827
30285,880,830
30290,867,828
30295,869,825
30300,863,824
30305,843,826
30310,837,826
30315,835,819
30320,826,818
30325,821,820
30330,808,816
30335,810,814
30340,800,819
30345,793,810
30350,775,814
30355,793,809
30360,777,810
30365,779,804
30370,763,802
30375,773,799
30380,763,799
30385,762,795
30390,758,795
30395,738,793
30400,754,789
30405,757,789
30410,754,787
30415,735,786
30420,738,777
30425,743,783
30430,747,772
30435,752,768
30440,754,768
30445,754,765
30450,748,760
30455,753,759
30460,766,761
30465,767,759
30470,776,749
30475,784,747
30480,778,743
30485,789,742
30490,807,742
30495,817,738
30500,819,738
30505,821,727
30510,827,728
30515,836,727
30520,852,722
30525,852,726
30530,858,715
30535,869,718
30540,878,715
30545,890,711
30550,897,715
30555,921,706
30560,924,706
30565,942,705
30570,937,704
30575,958,707
30580,957,706
30585,971,703
30590,984,701
30595,989,704
30600,1007,705
30605,1008,702
30610,1026,703
30615,1035,704
30620,1046,704
30625,1061,706
30630,1063,707
30635,1068,706
30640,1083,709
30645,1102,709
30650,1099,710
30655,1107,715
30660,1119,721
30665,1127,720
30670,1138,725
30675,1133,723
30680,1138,724
30685,1143,724
30690,1147,736
30695,1142,736
30700,1156,741
30705,1162,743
30710,1168,746
30715,1179,755
30720,1169,754
30725,1183,752
30730,1182,758
30735,1185,768
30740,1187,767
30745,1182,775
30750,1183,779
30755,1191,780
30760,1186,785
30765,1191,785
30770,1189,794
30775,1178,797
30780,1179,805
30785,1185,805
30790,1178,809
30795,1183,818
30800,1184,813
30805,1192,816
30810,1176,816
30815,1171,829
30820,1178,830
30825,1171,833
30830,1166,839
30835,1170,837
30840,1160,844
30845,1171,852
30850,1159,846
30855,1144,848
30860,1142,858
30865,1146,856
30870,1138,860
30875,1148,859
30880,1139,857
30885,1138,859
30890,1145,866
30895,1139,864
30900,1138,869
30905,1134,866
30910,1124,869
30915,1121,872
30920,1117,872
30925,1121,868
30930,1114,878
30935,1105,869
30940,1116,869
30945,1106,870
30950,1097,874
30955,1107,866
30960,1101,869
30965,1101,869
30970,1106,872
30975,1090,865
30980,1085,868
30985,1101,867
30990,1090,869
30995,1092,865
31000,1091,865
31005,1080,862
31010,1080,863
31015,1075,866
31020,1086,860
31025,1085,862
31030,1081,864
31035,1077,859
31040,1075,859
31045,1067,856
31050,1062,861
31055,1058,848
31060,1057,859
31065,1049,852
31070,1057,854
31075,1046,845
31080,1046,855
31085,1039,850
31090,1032,848
31095,1033,848
31100,1029,846
31105,1024,842
31110,1021,843
31115,1006,838
31120,1006,839
31125,1003,846
31130,992,842
31135,990,837
31140,994,842
31145,979,835
31150,971,836
31155,966,841
31160,951,840
31165,957,839
31170,942,835
31175,946,828
31180,922,836
31185,921,827
31190,905,834
31195,911,834
31200,899,829
31205,889,836
31210,878,829
31215,882,830
31220,862,823
31225,863,828
31230,854,823
31235,847,829
31240,841,821
31245,825,822
31250,822,825
31255,812,818
31260,816,818
31265,795,818
31270,798,813
31275,793,810
31280,792,809
31285,772,808
31290,775,807
31295,773,804
31300,765,800
31305,763,800
31310,756,800
31315,751,795
31320,751,797
31325,749,795
31330,753,792
31335,752,784
31340,751,785
31345,744,782
31350,752,776
31355,753,779
31360,753,773
31365,751,773
31370,750,768
31375,758,766
31380,758,763
31385,765,754
31390,771,758
31395,774,754
31400,780,752
31405,784,751
31410,783,743
31415,802,738
31420,792,745
31425,811,736
31430,822,735
31435,820,730
31440,829,732
31445,840,726
31450,849,724
31455,862,722
31460,863,719
31465,871,719
31470,886,718
31475,893,713
31480,904,713
31485,921,710
31490,918,709
31495,936,714
31500,938,704
31505,959,703
31510,965,701
31515,983,706
31520,990,706
31525,991,706
31530,1016,698
31535,1012,704
31540,1029,702
31545,1038,707
31550,1047,710
31555,1061,708
31560,1067,708
31565,1087,707
31570,1096,715
31575,1088,709
31580,1095,714
31585,1109,718
31590,1108,718
31595,1120,720
31600,1136,721
31605,1142,723
31610,1147,726
31615,1150,727
31620,1154,734
31625,1160,735
31630,1153,742
31635,1166,748
31640,1164,745
31645,1174,751
31650,1169,756
31655,1172,757
31660,1188,761
31665,1182,767
31670,1184,768
31675,1193,772
31680,1185,782
31685,1186,784
31690,1196,791
31695,1182,794
31700,1188,792
31705,1201,801
31710,1181,804
31715,1189,807
31720,1186,807
31725,1184,818
31730,1178,811
31735,1193,821
31740,1187,824
31745,1168,826
31750,1183,831
31755,1161,835
31760,1171,833
31765,1162,835
31770,1160,840
31775,1154,848
31780,1157,843
31785,1151,850
31790,1150,852
31795,1144,860
31800,1141,859
31805,1131,859
31810,1137,859
31815,1132,866
31820,1135,867
31825,1136,865
31830,1136,867
31835,1121,868
31840,1132,870
31845,1122,870
31850,1113,871
31855,1112,867
31860,1106,875
31865,1105,870
31870,1108,873
31875,1102,868
31880,1104,878
31885,1106,871
31890,1097,865
31895,1100,868
31900,1092,871
31905,1099,866
31910,1094,872
31915,1094,867
31920,1089,865
31925,1095,863
31930,1092,865
31935,1085,868
31940,1090,857
31945,1081,861
31950,1074,865
31955,1070,861
31960,1077,863
31965,1078,859
31970,1074,859
31975,1071,858
31980,1061,858
31985,1063,854
31990,1060,858
31995,1055,855
32000,1052,848
32005,1043,845
32009,1042,850
32015,1036,846
32020,1030,848
32025,1022,843
32030,1031,849
32034,1018,844
32040,1015,841
32045,1001,850
32049,1014,844
32055,992,846
32060,995,843
32064,993,841
32070,980,836
32075,969,830
32080,960,837
32085,967,845
32090,956,834
32095,946,838
32100,935,833
32104,939,830
32110,929,832
32115,923,831
32119,903,830
32125,907,832
32130,896,831
32134,894,829
32140,876,833
32145,870,823
32150,866,825
32155,853,824
32159,845,824
32165,839,819
32170,833,818
32174,827,818
32180,817,823
32185,819,817
32189,806,810
32195,790,814
32200,788,812
32205,784,811
32210,789,807
32215,780,810
32220,782,811
32225,771,801
32229,766,796
32235,764,804
32240,759,796
32244,756,789
32250,759,793
32255,746,796
32259,753,791
32265,756,789
32270,751,782
32275,755,780
32280,754,779
32284,747,775
32290,748,770
32295,749,771
32299,757,769
32305,760,767
32310,757,758
32314,770,754
32320,782,751
32325,771,752
32330,780,749
32335,788,742
32340,791,748
32345,794,742
32350,813,737
32354,803,735
32360,814,734
32365,831,725
32369,829,725
32375,848,718
32380,843,721
32384,862,717
32390,874,720
32395,880,715
32400,887,706
32405,892,714
32409,905,705
32415,925,708
32420,929,705
32424,934,711
32430,951,709
32435,965,706
32439,972,703
32445,976,701
32450,995,701
32455,1010,702
32460,1008,699
32465,1025,703
32470,1035,700
32475,1038,703
32479,1050,710
32485,1065,702
32490,1065,705
32494,1082,707
32500,1086,709
32505,1091,712
32509,1101,718
32515,1125,709
32520,1121,711
32525,1124,721
32530,1134,725
32534,1137,725
32540,1150,732
32545,1151,728
32549,1161,736
32555,1161,742
32560,1164,743
32564,1173,750
32570,1172,750
32575,1172,755
32580,1173,757
32585,1183,759
32590,1184,764
32595,1191,766
32600,1188,774
32604,1193,776
32610,1189,783
32615,1185,782
32619,1178,791
32625,1192,791
32630,1189,797
32634,1191,797
32640,1179,805
32645,1181,809
32650,1182,809
32655,1176,826
32659,1178,817
32665,1183,820
32670,1179,824
32674,1165,832
32680,1177,831
32685,1163,836
32689,1163,835
32695,1163,843
32700,1163,846
32705,1165,847
32710,1153,844
32715,1150,854
32720,1150,850
32725,1152,862
32729,1142,860
32735,1145,863
32740,1145,860
32744,1129,859
32750,1127,868
32755,1124,868
32759,1132,864
32765,1124,870
32770,1120,873
32775,1119,872
32780,1116,870
32785,1115,875
32790,1109,869
32795,1108,874
32800,1125,873
32805,1111,870
32810,1098,867
32815,1106,878
32820,1094,872
32825,1094,867
32830,1094,871
32835,1096,865
32840,1097,870
32845,1087,867
32850,1087,864
32855,1083,871
32860,1079,870
32865,1083,862
32870,1080,864
32875,1085,866
32880,1082,862
32885,1086,855
32890,1074,857
32895,1072,864
32900,1072,857
32905,1066,856
32910,1069,858
32915,1065,858
32920,1056,849
32925,1055,850
32930,1054,843
32935,1049,847
32940,1044,849
32945,1043,847
32950,1037,844
32955,1030,843
32960,1028,846
32965,1020,837
32970,1002,843
32975,1012,843
32980,999,835
32985,1000,839
32990,990,839
32995,992,833
33000,974,839
33005,981,841
33010,975,837
33015,957,838
33020,950,836
33025,952,833
33030,948,828
33035,926,831
33040,922,830
33045,915,832
33050,902,831
33055,897,832
33060,894,838
33065,876,831
33070,875,825
33075,867,827
33080,863,823
33085,856,823
33090,838,820
33095,830,825
33100,831,822
33105,822,816
33110,816,818
33115,806,813
33120,809,820
33125,788,815
33130,789,812
33135,793,812
33140,781,806
33145,764,811
33150,778,808
33155,771,805
33160,767,802
33165,759,793
33170,766,797
33175,750,793
33180,748,790
33185,747,792
33190,750,787
33195,747,786
33200,751,780
33205,744,779
33210,745,776
33215,753,773
33220,749,771
33225,756,772
33230,756,767
33235,763,767
33240,760,760
33245,767,756
33250,769,752
33255,787,754
33260,781,748
33265,782,745
33270,794,743
33275,801,740
33280,807,732
33285,807,739
33290,824,733
33295,825,726
33300,833,732
33305,847,723
33310,853,722
33315,862,724
33320,874,719
33325,886,715
33330,891,712
33335,901,710
33340,912,711
33345,922,710
33350,933,711
33355,932,705
33360,951,709
33365,973,707
33370,977,705
33375,982,703
33380,1000,703
33385,1006,704
33390,1019,700
33395,1017,706
33400,1027,706
33405,1042,700
33410,1055,707
33415,1064,711
33420,1075,709
33425,1081,711
33430,1086,710
33435,1105,719
33440,1111,716
33445,1111,714
33450,1121,716
33455,1122,723
33460,1140,724
33465,1152,728
33470,1137,728
33475,1145,733
33480,1148,738
33485,1165,739
33490,1168,747
33495,1159,745
33500,1180,743
33505,1174,752
33510,1184,758
33515,1185,760
33520,1173,768
33525,1179,771
33530,1181,772
33535,1198,773
33540,1184,779
33545,1187,779
33550,1194,791
33555,1188,792
33560,1186,801
33565,1187,800
33570,1185,805
33575,1185,808
33580,1178,816
33585,1171,817
33590,1183,821
33595,1179,822
33600,1172,825
33605,1173,829
33610,1168,828
33615,1165,837
33620,1160,838
33625,1166,845
33630,1154,846
33635,1153,850
33640,1163,844
33645,1146,850
33650,1144,855
33655,1136,857
33660,1140,856
33665,1135,863
33670,1131,863
33675,1139,865
33680,1124,862
33685,1138,864
33690,1127,867
33695,1129,873
33700,1126,868
33705,1118,866
33710,1116,868
33715,1112,875
33720,1114,868
33725,1112,871
33730,1110,873
33735,1102,871
33740,1107,872
33745,1099,868
33750,1107,877
33755,1094,867
33760,1097,866
33765,1099,868
33770,1091,867
33775,1086,864
33780,1089,865
33785,1083,864
33790,1082,860
33795,1080,864
33800,1079,859
33805,1074,867
33810,1072,862
33815,1077,856
33820,1066,861
33825,1072,854
33830,1067,856
33835,1063,857
33840,1063,855
33845,1053,860
33850,1051,852
33855,1060,849
33860,1049,851
33865,1048,848
33870,1031,843
33875,1042,845
33880,1035,841
33885,1027,843
33890,1019,847
33895,1027,842
33900,1012,845
33905,1007,841
33910,995,842
33915,986,840
33920,988,839
33925,987,838
33930,981,837
33935,968,837
33940,965,838
33945,959,839
33950,947,833
33955,935,833
33960,932,834
33965,922,838
33970,927,828
33975,909,830
33980,906,826
33985,897,826
33990,901,833
33995,877,827
34000,870,824
34005,874,822
34010,857,823
34015,850,823
34020,842,827
34025,839,819
34030,825,824
34035,820,819
34040,813,818
34045,808,817
34050,797,816
34055,797,817
34060,795,809
34065,783,811
34070,778,808
34075,779,806
34080,761,805
34085,772,795
34090,756,794
34095,756,801
34100,756,793
34105,758,796
34110,756,792
34115,758,785
34120,748,789
34125,742,788
34130,741,777
34135,740,778
34140,756,771
34145,755,775
34150,751,771
34155,746,770
34160,757,763
34165,765,767
34170,758,758
34175,770,753
34180,767,752
34185,776,745
34190,783,755
34195,790,743
34200,788,735
34205,801,741
34210,812,736
34215,817,733
34220,825,732
34225,835,728
34230,836,725
34235,847,719
34240,869,718
34245,873,721
34250,880,714
34255,886,712
34260,900,712
34265,915,709
34270,927,705
34275,928,707
34280,935,706
34285,950,708
34290,958,706
34295,967,700
34300,983,700
34305,990,705
34310,1001,701
34315,1019,700
34320,1020,703
34325,1040,708
34330,1044,705
34335,1057,703
34340,1066,713
34345,1069,706
34350,1077,710
34355,1091,707
34360,1095,713
34365,1112,716
34370,1104,715
34375,1127,723
34380,1118,721
34385,1125,721
34390,1139,728
34395,1140,730
34400,1147,730
34405,1148,730
34410,1152,737
34415,1166,738
34420,1171,745
34425,1169,750
34430,1171,748
34435,1176,754
34440,1176,759
34445,1189,766
34450,1185,766
34455,1188,767
34460,1187,780
34465,1196,778
34470,1199,786
34475,1190,785
34480,1186,793
34485,1192,799
34490,1192,801
34495,1185,801
34500,1188,804
34505,1182,811
34510,1182,809
34515,1181,814
34520,1175,824
34525,1179,826
34530,1172,826
34535,1171,838
34540,1170,837
34545,1169,842
34550,1167,844
34555,1170,845
34560,1156,845
34565,1153,853
34570,1147,853
34575,1149,855
34580,1147,854
34585,1150,852
34590,1145,857
34595,1136,864
34600,1133,864
34605,1133,867
34610,1129,865
34615,1130,868
34620,1125,866
34625,1129,868
34630,1118,874
34635,1114,867
34640,1115,873
34645,1109,873
34650,1105,873
34655,1113,875
34660,1111,876
34665,1095,872
34670,1093,871
34675,1107,873
34680,1101,872
34685,1103,871
34690,1099,871
34695,1092,869
34700,1093,870
34705,1087,864
34710,1085,865
34715,1092,864
34720,1077,864
34725,1091,865
34730,1088,864
34735,1069,862
34740,1067,864
34745,1076,853
34750,1068,859
34755,1074,862
34760,1060,855
34765,1054,848
34770,1060,851
34775,1052,858
34780,1057,846
34785,1052,847
34790,1041,847
34795,1050,846
34800,1038,847
34805,1032,849
34810,1035,844
34815,1027,848
34820,1022,848
34825,1010,839
34830,1000,849
34835,1010,835
34840,981,835
34845,992,843
34850,985,841
34855,982,836
34860,973,838
34865,966,840
34870,964,838
34875,947,833
34880,949,838
34885,936,836
34890,942,839
34895,926,832
34900,909,838
34905,917,830
34910,900,827
34915,886,830
34920,883,828
34925,874,829
34930,870,824
34935,863,829
34940,859,821
34945,848,823
34950,841,823
34955,850,817
34960,829,821
34965,815,819
34970,811,819
34975,804,814
34980,803,815
34985,789,818
34990,784,812
34995,780,804
35000,777,809
35005,769,811
35010,772,802
35015,768,800
35020,763,796
35025,756,794
35030,752,794
35035,765,794
35040,744,791
35045,748,790
35050,751,783
35055,751,786
35060,752,781
35065,748,774
35070,744,773
35075,754,762
35080,764,769
35085,757,769
35090,759,762
35095,757,752
35100,759,759
35105,774,750
35110,783,751
35115,783,749
35120,784,740
35125,791,740
35130,796,739
35135,812,735
35140,805,733
35145,824,731
35150,838,726
35155,835,730
35160,836,726
35165,852,725
35170,864,724
35175,864,714
35180,889,719
35185,904,709
35190,909,709
35195,917,711
35200,922,710
35205,930,709
35210,948,705
35215,950,707
35220,967,702
35225,980,701
35230,986,704
35235,1002,707
35240,1004,699
35245,1014,701
35250,1031,704
35255,1036,704
35260,1038,697
35265,1050,709
35270,1066,710
35275,1080,708
35280,1087,709
35285,1074,711
35290,1106,713
35295,1109,717
35300,1109,712
35305,1114,721
35310,1118,724
35315,1135,726
35320,1141,726
35325,1143,731
35330,1155,731
35335,1157,739
35340,1164,736
35345,1165,744
35350,1169,744
35355,1166,753
35360,1172,757
35365,1168,751
35370,1187,760
35375,1179,765
35380,1180,770
35385,1188,774
35390,1193,778
35395,1181,780
35400,1182,788
35405,1186,790
35410,1200,793
35415,1189,793
35420,1189,797
35425,1188,804
35430,1194,807
35435,1186,812
35440,1182,820
35445,1177,819
35450,1166,823
35455,1166,827
35460,1180,833
35465,1174,836
35470,1169,833
35475,1169,838
35480,1160,839
35485,1153,848
35490,1153,845
35495,1155,854
35500,1146,851
35505,1140,855
35510,1145,860
35515,1142,860
35520,1142,861
35525,1140,859
35530,1141,863
35535,1126,865
35540,1132,866
35545,1124,869
35550,1116,865
35555,1126,868
35560,1112,872
35565,1112,874
35570,1113,873
35575,1114,868
35580,1113,869
35585,1106,877
35590,1109,869
35595,1105,873
35600,1103,868
35605,1098,872
35610,1101,876
35615,1085,869
35620,1094,872
35625,1098,870
35630,1091,867
35635,1092,866
35640,1086,866
35645,1084,865
35650,1078,866
35655,1075,861
35660,1076,859
35665,1081,861
35670,1079,862
35675,1068,861
35680,1069,856
35685,1060,856
35690,1057,861
35695,1059,856
35700,1058,861
35705,1064,851
35710,1045,854
35715,1058,851
35720,1039,849
35725,1043,847
35730,1037,848
35735,1026,853
35740,1027,843
35745,1025,842
35750,1011,844
35755,1020,841
35760,1007,841
35765,995,838
35770,1000,840
35775,980,837
35780,980,840
35785,973,837
35790,969,834
35795,964,836
35800,952,835
35805,949,836
35810,935,833
35815,927,836
35820,924,835
35825,918,831
35830,907,834
35835,903,827
35840,898,831
35845,886,827
35850,886,820
35855,870,826
35860,871,823
35865,854,825
35870,850,830
35875,836,825
35880,833,820
35885,827,823
35890,813,816
35895,810,822
35900,810,810
35905,800,818
35910,798,810
35915,790,813
35920,785,814
35925,765,814
35930,766,807
35935,773,805
35940,767,803
35945,755,802
35950,754,800
35955,745,798
35960,746,792
35965,756,790
35970,755,792
35975,745,783
35980,753,780
35985,739,780
35990,743,777
35995,753,771
36000,756,774
36005,755,773
36010,752,760
36015,754,772
36020,750,759
36025,768,763
36030,771,758
36035,773,752
36040,773,754
36045,778,749
36050,791,753
36055,803,745
36060,801,734
36065,811,734
36070,822,734
36075,829,731
36080,835,728
36085,844,725
36090,855,723
36095,864,716
36100,872,719
36105,875,717
36110,885,717
36115,893,703
36120,919,708
36125,920,710
36130,927,707
36135,929,706
36140,947,706
36145,962,706
36150,975,702
36155,979,702
36160,984,704
36165,989,703
36170,1006,700
36175,1016,701
36180,1031,699
36185,1040,705
36190,1049,705
36195,1067,702
36200,1063,709
36205,1075,708
36210,1093,708
36215,1102,711
36220,1104,720
36225,1108,715
36230,1120,720
36235,1123,715
36240,1126,722
36245,1136,727
36250,1146,727
36255,1153,731
36260,1146,736
36265,1161,739
36270,1170,745
36275,1168,755
36280,1168,750
36285,1179,753
36290,1178,754
36295,1189,756
36300,1188,767
36305,1176,769
36310,1183,770
36315,1195,777
36320,1187,781
36325,1189,785
36330,1184,785
36335,1183,789
36340,1184,795
36345,1186,799
36350,1186,804
36355,1195,811
36360,1191,810
36365,1190,820
36370,1180,817
36375,1179,824
36380,1174,822
36385,1160,826
36390,1180,834
36395,1167,836
36400,1169,843
36405,1172,839
36410,1161,844
36415,1157,850
36420,1170,850
36425,1148,854
36430,1146,858
36435,1156,853
36440,1149,857
36445,1138,857
36450,1146,858
36455,1138,859
36460,1135,860
36465,1137,856
36470,1128,867
36475,1117,868
36480,1115,872
36485,1113,871
36490,1126,875
36495,1113,866
36500,1108,874
36505,1103,871
36510,1107,865
36515,1107,878
36520,1111,871
36525,1113,874
36530,1098,869
36535,1098,871
36540,1095,873
36545,1095,862
36550,1107,864
36555,1095,867
36560,1091,869
36565,1090,866
36570,1077,864
36575,1093,862
36580,1080,862
36585,1086,864
36590,1074,856
36595,1070,864
36600,1079,863
36605,1075,855
36610,1068,859
36615,1063,861
36620,1064,857
36625,1055,855
36630,1048,857
36635,1050,852
36640,1046,847
36645,1049,852
36650,1046,847
36655,1043,850
36660,1031,849
36665,1032,848
36670,1025,847
36675,1019,842
36680,1011,849
36685,1007,843
36690,1007,836
36695,995,847
36700,992,838
36705,980,836
36710,981,835
36715,984,838
36720,962,833
36725,963,836
36730,952,832
36735,944,835
36740,935,837
36745,937,836
36750,924,833
36755,906,834
36760,918,832
36765,896,834
36770,898,836
36775,884,831
36780,883,830
36785,869,825
36790,853,824
36795,855,826
36800,845,825
36805,853,823
36810,829,822
36815,831,823
36820,818,824
36825,818,817
36830,798,812
36835,797,812
36840,793,809
36845,794,808
36850,780,810
36855,775,811
36860,778,807
36865,771,806
36870,763,804
36875,759,799
36880,759,793
36885,762,791
36890,751,794
36895,753,792
36900,753,790
36905,746,785
36910,744,780
36915,747,780
36920,751,779
36925,752,768
36930,750,778
36935,747,765
36940,757,767
36945,763,761
36950,761,760
36955,772,754
36960,771,754
36965,778,748
36970,773,746
36975,788,748
36980,785,738
36985,799,739
36990,803,735
36995,808,730
