timestamp_ms,ir_finger,ir_toe
0,1040,655
5,1053,661
10,1067,657
15,1082,660
20,1092,665
25,1091,675
30,1115,681
35,1127,679
40,1132,689
45,1151,689
50,1145,696
55,1152,699
60,1165,706
65,1166,715
70,1174,719
75,1178,736
80,1180,733
85,1187,742
90,1185,748
95,1179,757
100,1190,771
105,1194,781
110,1192,787
115,1195,794
120,1194,800
125,1182,812
130,1187,815
135,1190,824
140,1186,837
145,1179,838
150,1172,845
155,1168,858
160,1166,861
165,1160,866
170,1159,871
175,1159,872
180,1154,876
185,1147,891
190,1143,887
195,1138,888
200,1138,897
205,1130,899
210,1128,898
215,1131,906
220,1123,903
225,1112,902
230,1111,908
235,1116,907
240,1109,900
245,1110,903
250,1103,908
255,1099,905
260,1099,899
265,1093,909
270,1092,908
275,1096,896
280,1083,902
285,1081,894
290,1079,891
295,1083,893
300,1087,894
305,1076,894
310,1077,887
315,1070,887
320,1061,882
325,1058,879
330,1051,877
335,1044,877
340,1038,877
345,1039,873
350,1020,868
355,1024,865
360,1027,873
365,1019,866
370,1013,861
375,1006,867
380,989,864
385,988,855
390,973,854
395,974,852
400,959,854
405,947,853
410,930,847
415,932,854
420,918,846
425,905,852
430,892,852
435,883,846
440,876,836
445,865,841
450,860,843
455,842,831
460,829,829
465,830,834
470,817,826
475,803,828
480,799,821
485,788,820
490,788,814
495,784,814
500,774,810
505,769,802
510,768,802
515,760,795
520,755,786
525,751,787
530,745,784
535,748,774
540,740,775
545,753,764
550,754,756
555,755,755
560,768,745
565,760,733
570,769,734
575,776,730
580,773,725
585,784,716
590,792,712
595,808,705
600,814,708
605,812,695
610,847,693
615,852,691
620,859,682
625,877,671
630,892,672
635,898,666
640,919,666
645,923,661
650,947,666
655,957,660
660,975,658
665,980,656
670,993,662
675,1009,661
680,1029,653
685,1046,663
690,1052,654
695,1064,664
700,1088,665
705,1094,668
710,1099,676
715,1101,676
720,1121,677
725,1137,683
730,1134,689
735,1148,695
740,1146,703
745,1153,701
750,1161,721
755,1168,721
760,1175,729
765,1188,735
770,1184,739
775,1180,756
780,1189,762
785,1183,766
790,1186,772
795,1196,780
800,1182,789
805,1185,794
810,1184,808
815,1181,812
820,1183,826
825,1171,828
830,1176,836
835,1173,845
840,1160,845
845,1164,856
850,1156,865
855,1160,867
860,1148,873
865,1149,881
870,1134,880
875,1142,889
880,1140,890
885,1128,895
890,1129,897
895,1130,900
900,1120,903
905,1130,898
910,1117,906
915,1119,902
920,1111,907
925,1106,902
930,1109,903
935,1099,909
940,1103,902
945,1100,905
950,1101,902
955,1093,905
960,1082,900
965,1084,901
970,1082,892
975,1097,896
980,1093,901
985,1074,891
990,1067,890
995,1077,890
1000,1062,886
1004,1059,884
1010,1065,885
1014,1059,876
1020,1052,877
1025,1053,874
1030,1046,877
1035,1038,870
1040,1033,873
1045,1016,863
1050,1028,861
1055,1005,861
1060,1001,862
1065,990,864
1070,978,856
1075,981,856
1080,977,857
1085,958,851
1090,957,855
1095,952,850
1100,929,848
1105,916,848
1110,916,844
1115,893,843
1120,887,842
1125,878,842
1130,867,840
1135,848,839
1140,851,836
1145,836,840
1150,836,830
1155,827,833
1160,812,826
1165,806,824
1170,800,820
1175,785,820
1180,779,810
1185,772,807
1190,775,809
1195,764,800
1200,760,796
1205,749,793
1210,751,786
1215,754,784
1220,743,783
1225,756,769
1230,751,770
1235,758,762
1240,756,750
1245,755,750
1250,766,743
1255,759,735
1260,766,732
1265,783,723
1270,782,721
1275,797,712
1280,802,705
1285,814,698
1290,816,703
1295,830,683
1300,841,688
1305,859,682
1310,875,683
1315,893,677
1320,896,671
1325,913,668
1330,919,665
1335,940,664
1340,952,657
1345,973,659
1350,976,657
1355,995,661
1360,1009,653
1365,1019,654
1370,1039,653
1375,1052,651
1380,1064,656
1385,1072,664
1390,1082,665
1395,1106,667
1400,1107,673
1405,1120,678
1410,1130,683
1415,1124,692
1420,1140,693
1425,1157,699
1430,1159,706
1435,1166,714
1440,1172,720
1445,1182,732
1450,1188,730
1455,1184,739
1460,1182,747
1465,1181,757
1470,1178,772
1475,1185,774
1480,1181,779
1485,1184,787
1490,1180,793
1495,1186,801
1500,1182,811
1505,1183,819
1510,1185,828
1515,1182,840
1520,1171,841
1525,1165,852
1530,1165,855
1535,1156,859
1540,1161,866
1545,1153,872
1550,1154,879
1555,1142,881
1560,1137,886
1565,1142,894
1570,1141,893
1575,1138,898
1580,1137,897
1585,1124,901
1590,1128,906
1595,1116,908
1600,1115,903
1605,1120,904
1610,1113,904
1615,1109,908
1620,1110,910
1625,1098,907
1630,1101,901
1635,1089,903
1640,1101,903
1645,1100,906
1650,1093,899
1655,1095,896
1660,1086,898
1665,1087,894
1670,1075,893
1675,1080,892
1680,1066,884
1685,1071,879
1690,1056,881
1695,1064,880
1700,1054,878
1705,1056,877
1710,1049,873
1715,1033,870
1720,1035,867
1725,1029,873
1730,1025,867
1735,1024,862
1740,1014,868
1745,1014,858
1750,992,860
1755,991,857
1760,977,859
1765,965,860
1770,953,855
1775,945,851
1780,949,850
1785,936,853
1790,920,842
1795,908,846
1800,901,847
1805,893,844
1810,885,842
1815,879,837
1820,861,839
1825,853,840
1830,842,837
1835,834,832
1840,820,833
1845,826,826
1850,807,820
1855,788,818
1860,798,820
1865,783,822
1870,778,811
1875,759,806
1880,767,803
1885,755,795
1890,747,795
1895,753,790
1900,746,783
1905,740,774
1910,753,770
1915,744,768
1920,747,765
1925,751,757
1930,756,747
1935,751,746
1940,765,737
1945,771,736
1950,767,731
1955,778,724
1960,798,714
1965,795,707
1970,812,710
1975,821,699
1980,829,689
1985,838,691
1990,863,685
1995,872,680
2000,881,677
2005,898,676
2009,900,669
2015,911,669
2020,940,659
2025,954,661
2029,956,657
2035,977,652
2040,992,656
2045,1016,657
2050,1015,655
2055,1031,666
2060,1046,654
2065,1056,658
2070,1078,667
2075,1076,665
2080,1096,670
2085,1097,672
2090,1109,675
2095,1124,678
2100,1140,684
2105,1140,691
2110,1154,696
2115,1152,706
2120,1159,710
2125,1172,722
2130,1173,727
2135,1171,733
2140,1171,741
2145,1185,751
2150,1181,760
2155,1179,766
2160,1199,770
2165,1187,771
2170,1189,790
2175,1185,796
2180,1193,804
2185,1184,816
2190,1181,822
2195,1177,830
2200,1177,830
2205,1176,839
2210,1169,851
2215,1164,854
2220,1169,856
2225,1164,860
2230,1154,872
2235,1144,873
2240,1149,886
2245,1158,882
2250,1145,891
2255,1134,894
2260,1137,899
2265,1130,903
2270,1128,900
2275,1123,900
2280,1126,905
2285,1113,907
2290,1109,902
2295,1110,908
2300,1104,911
2305,1102,907
2310,1112,907
2315,1101,904
2320,1102,901
2325,1095,901
2330,1097,904
2335,1083,897
2340,1092,897
2345,1078,899
2350,1086,896
2355,1082,883
2360,1080,894
2365,1073,890
2370,1072,884
2375,1062,887
2380,1060,888
2385,1054,875
2390,1051,875
2395,1052,877
2400,1041,873
2405,1037,872
2410,1029,867
2415,1030,871
2420,1022,863
2425,1015,862
2430,1011,863
2435,993,857
2440,990,866
2445,980,857
2450,967,856
2455,971,860
2460,956,853
2465,947,855
2470,926,850
2475,925,845
2480,924,847
2485,917,847
2490,893,844
2495,881,840
2500,870,839
2505,869,842
2510,853,839
2515,837,835
2520,833,832
2525,819,832
2530,816,827
2535,802,822
2540,804,823
2545,796,815
2550,791,821
2555,781,809
2560,763,807
2565,759,801
2570,759,801
2575,751,795
2580,754,787
2585,761,784
2590,747,781
2595,752,776
2600,745,769
2605,746,763
2610,756,757
2615,771,753
2620,759,746
2625,767,744
2630,770,738
2635,775,729
2640,786,721
2645,796,718
2650,789,711
2655,807,709
2660,825,699
2665,828,698
2670,836,695
2675,843,687
2680,863,678
2685,874,675
2690,888,671
2695,910,670
2700,915,661
2705,934,654
2710,948,660
2715,963,657
2720,982,653
2725,978,654
2730,1004,658
2735,1016,654
2740,1031,662
2745,1044,661
2750,1050,655
2755,1081,662
2760,1077,665
2765,1089,670
2770,1101,664
2775,1115,678
2780,1125,677
2785,1128,684
2790,1135,689
2795,1145,692
2800,1151,701
2805,1165,712
2810,1159,715
2815,1174,723
2820,1180,738
2825,1177,735
2830,1184,746
2835,1185,755
2840,1189,762
2845,1183,769
2850,1183,773
2855,1186,786
2860,1184,794
2865,1183,807
2870,1187,812
2875,1176,814
2880,1190,831
2885,1184,831
2890,1174,839
2895,1173,848
2900,1167,851
2905,1167,859
2910,1156,862
2915,1159,871
2920,1156,877
2925,1151,872
2930,1155,880
2935,1146,888
2940,1140,892
2945,1137,892
2950,1141,898
2955,1123,897
2960,1128,902
2965,1119,907
2970,1114,903
2975,1110,901
2980,1108,905
2985,1106,897
2990,1111,909
2995,1094,912
3000,1109,901
3005,1097,906
3010,1109,910
3015,1092,904
3020,1095,899
3025,1082,900
3030,1088,900
3035,1077,899
3040,1077,890
3045,1077,892
3050,1078,889
3055,1073,888
3060,1064,889
3065,1066,881
3070,1053,880
3075,1056,878
3080,1051,870
3085,1040,874
3090,1043,870
3095,1035,875
3100,1021,864
3105,1024,865
3110,1011,858
3115,1005,865
3120,1004,861
3125,997,856
3130,991,862
3135,978,852
3140,971,854
3145,956,848
3150,951,850
3155,945,850
3160,934,849
3165,928,851
3170,904,844
3175,899,847
3180,880,841
3185,884,838
3190,864,839
3195,860,840
3200,840,833
3205,834,838
3210,830,832
3215,804,825
3220,805,824
3225,798,823
3230,793,818
3235,793,818
3240,772,811
3245,774,809
3250,766,806
3255,759,798
3260,756,795
3265,753,796
3270,753,782
3275,744,779
3280,747,777
3285,749,769
3290,750,764
3295,753,763
3300,753,755
3305,749,749
3310,754,740
3315,774,734
3320,772,735
3325,782,721
3330,791,717
3335,801,712
3340,804,705
3345,817,704
3350,832,694
3355,835,689
3360,855,690
3365,868,678
3370,873,676
3375,891,672
3380,897,673
3385,913,663
3390,930,664
3395,942,664
3400,956,665
3405,970,659
3410,984,656
3415,997,654
3420,1016,657
3425,1022,657
3430,1039,658
3435,1053,658
3440,1066,661
3445,1075,668
3450,1086,660
3455,1098,672
3460,1109,672
3465,1118,675
3470,1140,679
3475,1138,684
3480,1153,697
3485,1154,704
3490,1162,710
3495,1164,715
3500,1172,723
3505,1164,732
3510,1178,736
3515,1188,742
3520,1188,745
3525,1190,763
3530,1190,765
3535,1188,774
3540,1190,782
3545,1183,790
3550,1188,803
3555,1188,808
3560,1185,816
3565,1186,820
3570,1170,831
3575,1172,845
3580,1161,845
3585,1161,849
3590,1157,858
3595,1157,861
3600,1156,870
3605,1144,873
3610,1156,881
3615,1157,881
3620,1141,883
3625,1140,891
3630,1126,898
3635,1131,903
3640,1128,905
3645,1120,898
3650,1123,900
3655,1117,904
3660,1110,905
3665,1114,906
3670,1107,904
3675,1110,908
3680,1096,902
3685,1098,909
3690,1104,913
3695,1095,900
3700,1090,906
3705,1099,902
3710,1083,893
3715,1085,901
3720,1087,897
3725,1074,894
3730,1079,893
3735,1071,888
3740,1066,885
3745,1067,886
3750,1061,881
3755,1063,880
3760,1056,878
3765,1052,877
3770,1046,872
3775,1047,873
3780,1033,870
3785,1034,868
3790,1024,861
3795,1021,860
3800,1007,864
3805,1011,860
3810,996,862
3815,999,859
3820,977,861
3825,962,862
3830,965,853
3835,949,849
3840,937,849
3845,930,849
3850,925,852
3855,906,847
3860,901,845
3865,885,846
3870,884,846
3875,868,845
3880,866,837
3885,848,834
3890,846,836
3895,827,824
3900,818,831
3905,808,827
3910,800,823
3915,788,820
3920,788,814
3925,792,817
3930,775,813
3935,764,803
3940,773,800
3945,754,794
3950,748,788
3955,743,788
3960,743,781
3965,745,777
3970,746,777
3975,749,769
3980,753,765
3985,744,753
3990,748,747
3995,765,746
4000,769,736
4005,772,738
4010,769,722
4014,797,717
4019,797,714
4025,800,713
4030,811,700
4035,829,700
4040,839,686
4045,846,683
4050,861,682
4054,876,680
4059,894,675
4065,892,669
4070,920,665
4075,930,659
4080,933,666
4085,949,663
4090,975,652
4094,980,659
4100,993,658
4105,1007,658
4110,1023,660
4115,1034,655
4120,1046,658
4125,1065,660
4130,1075,668
4135,1088,665
4140,1097,673
4145,1112,676
4150,1114,677
4155,1122,682
4160,1128,687
4165,1143,692
4170,1144,695
4175,1157,709
4180,1170,715
4185,1168,717
4190,1173,725
4195,1173,735
4200,1188,739
4205,1173,751
4210,1191,753
4215,1179,768
4220,1188,772
4225,1190,779
4230,1187,792
4235,1191,796
4240,1187,798
4245,1180,811
4250,1181,821
4255,1182,828
4260,1167,840
4265,1181,840
4270,1173,849
4275,1165,852
4280,1167,856
4285,1160,866
4290,1153,871
4295,1147,877
4300,1150,882
4305,1149,885
4310,1146,893
4315,1148,895
4320,1126,895
4325,1119,902
4330,1118,898
4335,1123,903
4340,1124,902
4345,1114,906
4350,1117,908
4355,1106,906
4360,1106,907
4365,1101,908
4370,1112,907
4375,1096,902
4380,1108,903
4385,1093,901
4390,1088,903
4395,1088,902
4400,1090,899
4405,1087,893
4410,1078,894
4415,1077,892
4420,1076,888
4425,1074,891
4430,1069,883
4435,1067,888
4440,1056,883
4445,1052,880
4450,1050,877
4455,1044,876
4460,1044,874
4465,1044,869
4470,1032,868
4475,1018,862
4480,1020,864
4485,1008,863
4490,1006,863
4495,997,867
4500,983,860
4505,981,858
4510,967,854
4515,959,850
4520,951,853
4525,942,852
4530,938,849
4535,923,855
4540,914,843
4545,900,845
4550,898,850
4555,890,842
4560,871,834
4565,861,839
4570,858,837
4575,837,835
4580,835,835
4585,813,828
4590,811,825
4595,810,828
4600,794,825
4605,783,817
4610,777,818
4615,775,811
4620,762,808
4625,765,808
4630,757,801
4635,760,794
4640,756,792
4645,737,784
4650,745,777
4655,747,772
4660,746,770
4665,743,760
4670,760,757
4675,755,750
4680,752,742
4685,760,732
4690,772,731
4695,777,725
4700,784,721
4705,804,719
4710,793,711
4715,822,703
4720,819,695
4725,832,693
4730,847,689
4735,861,684
4740,861,677
4745,885,682
4750,898,670
4755,904,669
4760,923,665
4765,931,664
4770,951,662
4775,964,657
4780,986,656
4785,984,658
4790,1011,654
4795,1022,659
4800,1032,653
4805,1043,656
4810,1052,661
4815,1079,669
4820,1084,667
4825,1095,661
4830,1102,667
4835,1112,681
4840,1132,681
4845,1135,686
4850,1146,692
4855,1166,697
4860,1152,711
4865,1158,711
4870,1168,719
4875,1174,726
4880,1175,733
4885,1176,737
4890,1182,747
4895,1182,756
4900,1183,761
4905,1182,773
4910,1188,776
4915,1185,786
4920,1188,792
4925,1174,805
4930,1180,811
4935,1180,814
4940,1178,825
4945,1170,833
4950,1177,839
4955,1169,850
4960,1174,856
4965,1163,863
4970,1161,861
4975,1164,872
4980,1150,875
4985,1152,885
4990,1147,880
4995,1141,884
5000,1137,893
5005,1141,894
5010,1118,899
5015,1119,900
5020,1130,904
5025,1118,907
5030,1114,899
5035,1114,907
5040,1107,902
5045,1113,905
5050,1105,906
5055,1104,905
5060,1100,907
5065,1108,906
5070,1111,902
5075,1096,903
5080,1101,906
5085,1088,901
5090,1085,897
5095,1074,891
5100,1070,897
5105,1075,885
5110,1073,892
5115,1071,889
5120,1064,882
5125,1063,879
5130,1059,878
5135,1053,880
5140,1053,871
5145,1046,874
5150,1038,874
5155,1035,870
5160,1030,865
5165,1032,866
5170,1020,863
5175,1006,854
5180,994,859
5185,996,864
5190,991,861
5195,975,857
5200,967,853
5205,955,855
5210,939,853
5215,935,853
5220,927,849
5225,923,847
5230,906,849
5235,892,850
5240,886,841
5245,871,846
5250,869,840
5255,854,836
5260,849,834
5265,839,835
5270,826,824
5275,815,829
5280,804,822
5285,800,822
5290,789,818
5295,779,815
5300,775,816
5305,769,801
5310,760,805
5315,758,797
5320,755,795
5325,748,789
5330,745,781
5335,746,779
5340,748,775
5345,752,768
5350,752,760
5355,754,754
5360,750,754
5365,753,747
5370,762,739
5375,768,730
5380,767,725
5385,778,721
5390,785,711
5395,787,712
5400,810,706
5405,810,696
5410,827,693
5415,838,688
5420,861,685
5425,858,680
5430,872,673
5435,891,674
5440,906,668
5445,913,664
5450,936,665
5455,946,658
5460,961,662
5465,975,657
5470,990,659
5475,996,656
5480,1013,655
5485,1039,658
5490,1047,656
5495,1056,667
5500,1072,666
5505,1081,666
5510,1087,668
5515,1106,674
5520,1109,673
5525,1122,686
5530,1129,686
5535,1142,688
5540,1148,694
5545,1150,703
5550,1163,710
5555,1169,714
5560,1170,721
5565,1175,733
5570,1181,740
5575,1192,746
5580,1180,754
5585,1177,763
5590,1187,765
5595,1193,774
5600,1191,788
5605,1181,792
5610,1184,802
5615,1184,803
5620,1181,816
5625,1182,822
5630,1188,832
5635,1183,841
5640,1182,843
5645,1173,850
5650,1173,857
5655,1157,864
5660,1160,872
5665,1154,872
5670,1150,873
5675,1144,881
5680,1135,885
5685,1132,892
5690,1135,893
5695,1126,895
5700,1128,896
5705,1125,901
5710,1120,902
5715,1117,907
5720,1111,900
5725,1114,905
5730,1114,900
5735,1106,905
5740,1101,904
5745,1092,905
5750,1095,905
5755,1090,897
5760,1087,906
5765,1083,906
5770,1084,901
5775,1083,898
5780,1084,894
5785,1085,893
5790,1080,894
5795,1076,890
5800,1074,886
5805,1068,884
5810,1057,883
5815,1062,878
5820,1057,879
5825,1060,876
5830,1046,876
5835,1040,873
5840,1031,867
5845,1032,869
5850,1021,867
5855,1013,862
5860,1012,862
5865,1003,861
5870,985,862
5875,982,861
5880,979,860
5885,974,857
5890,959,856
5895,941,849
5900,943,857
5905,925,851
5910,916,851
5915,913,846
5920,900,845
5925,884,844
5930,876,842
5935,872,836
5940,849,846
5945,847,838
5950,842,836
5955,827,834
5960,815,829
5965,803,827
5970,795,823
5975,790,824
5980,788,818
5985,781,815
5990,769,811
5995,766,809
6000,758,799
6005,753,795
6010,755,790
6015,753,788
6020,745,782
6025,748,777
6030,744,774
6035,750,759
6040,755,758
6045,752,749
6050,749,750
6055,764,734
6060,762,736
6065,774,728
6070,776,725
6075,781,715
6080,803,715
6085,811,704
6090,814,698
6095,826,700
6100,845,685
6105,848,683
6110,859,680
6115,868,675
6120,889,667
6125,887,668
6130,915,672
6135,930,661
6140,940,660
6145,956,660
6150,972,657
6155,990,657
6160,995,658
6165,1005,655
6170,1017,654
6175,1038,658
6180,1055,661
6185,1063,660
6190,1085,661
6195,1090,663
6200,1096,670
6205,1111,677
6210,1132,684
6215,1133,680
6220,1148,687
6225,1143,691
6230,1150,704
6235,1157,711
6240,1164,710
6245,1180,720
6250,1176,727
6255,1186,737
6260,1185,740
6265,1182,749
6270,1181,763
6275,1182,765
6280,1189,781
6285,1184,778
6290,1183,787
6295,1188,797
6300,1182,810
6305,1181,815
6310,1180,826
6315,1188,828
6320,1187,835
6325,1173,842
6330,1160,851
6335,1171,862
6340,1158,858
6345,1162,865
6350,1156,869
6355,1160,879
6360,1147,886
6365,1145,882
6370,1135,887
6375,1134,893
6380,1133,894
6385,1130,899
6390,1130,906
6395,1116,904
6400,1122,902
6405,1109,903
6410,1115,904
6415,1107,906
6420,1103,904
6425,1101,906
6430,1093,900
6435,1096,909
6440,1094,906
6445,1088,907
6450,1090,897
6455,1090,901
6460,1077,897
6465,1080,896
6470,1088,887
6475,1075,894
6480,1079,885
6485,1077,889
6490,1058,877
6495,1059,883
6500,1064,881
6505,1060,880
6510,1046,876
6515,1050,876
6520,1034,874
6525,1026,869
6530,1029,864
6535,1025,863
6540,1016,865
6545,1005,864
6550,1004,864
6555,1001,859
6560,995,856
6565,979,856
6570,963,857
6575,952,851
6580,942,858
6585,933,854
6590,927,854
6595,926,847
6600,917,850
6605,901,847
6610,886,845
6615,883,843
6620,862,839
6625,857,840
6630,846,838
6635,848,836
6640,835,833
6645,814,830
6650,812,828
6655,797,823
6660,796,825
6665,784,814
6670,778,815
6675,768,806
6680,764,807
6685,761,801
6690,755,798
6695,751,788
6700,752,786
6705,752,785
6710,747,776
6715,737,769
6720,741,763
6725,756,762
6730,751,759
6735,752,753
6740,756,746
6745,763,736
6750,765,733
6755,783,725
6760,787,722
6765,792,716
6770,797,705
6775,816,703
6780,818,698
6785,831,689
6790,846,684
6795,856,684
6800,875,676
6805,883,678
6810,905,673
6815,910,669
6820,933,661
6825,943,664
6830,949,663
6835,966,662
6840,976,660
6845,996,655
6850,1015,654
6855,1029,656
6860,1035,655
6865,1054,656
6870,1064,656
6875,1081,665
6880,1091,666
6885,1094,674
6890,1109,674
6895,1114,679
6900,1119,685
6905,1130,684
6910,1145,697
6915,1150,698
6920,1161,708
6925,1164,713
6930,1172,720
6935,1179,726
6940,1178,737
6945,1182,740
6950,1184,750
6955,1186,755
6960,1189,764
6965,1198,773
6970,1191,783
6975,1192,790
6980,1184,796
6985,1182,804
6990,1181,816
6995,1180,819
7000,1175,830
7005,1172,834
7010,1178,845
7015,1159,848
7020,1165,856
7025,1175,861
7030,1160,860
7035,1155,872
7040,1148,878
7045,1143,879
7050,1150,881
7055,1139,888
7060,1133,892
7065,1130,894
7070,1132,900
7075,1134,900
7080,1120,906
7085,1117,905
7090,1118,909
7095,1111,909
7100,1104,909
7105,1117,905
7110,1108,909
7115,1099,906
7120,1093,906
7125,1106,900
7130,1089,899
7135,1099,898
7140,1101,902
7145,1087,899
7150,1083,896
7155,1077,897
7160,1079,894
7165,1078,895
7170,1071,888
7175,1064,887
7180,1067,883
7185,1066,885
7190,1059,882
7195,1051,873
7200,1052,873
7205,1047,875
7210,1037,873
7215,1034,870
7220,1030,868
7225,1013,861
7230,1006,861
7235,999,863
7240,1002,864
7245,991,863
7250,973,857
7255,969,857
7260,959,854
7265,957,855
7270,940,847
7275,931,849
7280,927,855
7285,906,850
7290,901,845
7295,894,846
7300,878,840
7305,868,838
7310,875,837
7315,847,833
7320,845,838
7325,833,834
7330,822,831
7335,812,829
7340,796,824
7345,794,820
7350,793,818
7355,784,817
7360,779,811
7365,768,809
7370,759,806
7375,755,796
7380,745,792
7385,753,793
7390,752,783
7395,748,780
7400,753,776
7405,747,770
7410,757,759
7415,750,753
7420,754,750
7425,754,744
7430,769,743
7435,775,733
7440,774,727
7445,778,727
7450,801,715
7455,797,714
7460,815,705
7465,817,700
7470,827,695
7475,843,686
7480,857,689
7485,865,688
7490,882,674
7495,897,676
7500,911,666
7505,928,663
7510,924,661
7515,952,659
7520,972,664
7525,978,653
7530,995,658
7535,1009,659
7540,1020,655
7545,1026,659
7550,1047,657
7555,1054,656
7560,1071,663
7565,1077,667
7570,1095,669
7575,1101,670
7580,1112,677
7585,1130,683
7590,1123,687
7595,1146,691
7600,1146,698
7605,1159,700
7610,1167,711
7615,1162,717
7620,1169,729
7625,1179,738
7630,1182,739
7635,1189,749
7640,1181,755
7645,1194,760
7650,1184,772
7655,1185,783
7660,1190,787
7665,1188,796
7670,1190,806
7675,1182,812
7680,1182,812
7685,1183,823
7690,1174,834
7695,1166,837
7700,1176,845
7705,1169,851
7710,1168,856
7715,1157,863
7720,1154,873
7725,1153,876
7730,1156,879
7735,1145,890
7740,1136,891
7745,1132,892
7750,1130,893
7755,1123,900
7760,1126,903
7765,1122,899
7770,1120,906
7775,1111,907
7780,1119,907
7785,1114,905
7790,1105,905
7795,1108,911
7800,1097,905
7805,1092,901
7810,1099,906
7815,1092,906
7820,1097,903
7825,1082,896
7830,1083,900
7835,1089,897
7840,1083,899
7845,1080,892
7850,1077,890
7855,1071,888
7860,1062,883
7865,1070,888
7870,1061,880
7875,1062,879
7880,1046,875
7885,1042,874
7890,1042,872
7895,1044,874
7900,1037,867
7905,1022,863
7910,1021,868
7915,1010,867
7920,998,864
7925,999,858
7930,993,863
7935,978,855
7940,975,857
7945,961,854
7950,956,849
7955,940,854
7960,935,845
7965,919,852
7970,921,847
7975,904,846
7980,902,845
7985,884,844
7990,865,845
7995,862,845
8000,852,837
8005,842,834
8010,839,833
8015,826,832
8020,812,825
8025,821,827
8029,803,827
8035,793,819
8039,784,818
8045,777,809
8050,771,805
8055,754,802
8060,759,802
8064,756,790
8070,754,790
8074,745,785
8080,747,781
8085,749,777
8090,741,772
8095,750,765
8100,758,752
8105,750,753
8109,761,742
8115,758,736
8119,768,736
8125,781,725
8130,783,722
8135,786,715
8140,800,711
8145,808,706
8150,820,697
8154,822,703
8160,839,685
8164,853,684
8170,863,686
8175,884,678
8180,885,672
8185,901,671
8189,918,671
8195,934,665
8200,943,658
8205,967,659
8210,969,657
8215,992,658
8220,995,656
8225,1018,658
8230,1024,657
8235,1039,655
8240,1050,661
8245,1075,663
8250,1087,664
8255,1102,667
8260,1105,677
8265,1107,679
8270,1128,683
8275,1122,680
8280,1135,695
8285,1143,695
8290,1155,702
8295,1163,711
8300,1156,719
8305,1176,725
8310,1177,730
8315,1176,732
8320,1188,743
8325,1180,752
8330,1192,761
8335,1187,768
8340,1180,779
8345,1184,786
8350,1195,796
8355,1187,798
8360,1188,811
8365,1185,810
8370,1181,826
8375,1176,830
8380,1179,839
8385,1167,846
8390,1166,851
8395,1168,856
8400,1163,862
8405,1155,869
8410,1150,872
8415,1147,882
8420,1146,884
8425,1143,890
8430,1147,891
8435,1129,894
8440,1131,891
8445,1119,905
8450,1129,902
8455,1122,902
8460,1111,905
8465,1117,902
8470,1112,904
8475,1106,911
8480,1101,903
8485,1103,906
8490,1084,905
8495,1091,907
8500,1105,899
8505,1088,899
8510,1088,896
8515,1078,900
8520,1089,898
8525,1085,894
8530,1078,892
8535,1081,890
8540,1076,895
8545,1079,886
8550,1066,885
8555,1071,883
8560,1059,884
8565,1049,878
8570,1050,883
8575,1037,874
8580,1037,871
8585,1029,871
8590,1033,869
8595,1023,866
8600,1021,866
8605,1012,858
8610,1008,862
8615,990,861
8620,983,858
8625,977,859
8630,969,856
8635,960,855
8640,952,851
8645,935,857
8650,933,845
8655,920,847
8660,906,847
8665,895,848
8670,887,845
8675,876,839
8680,862,841
8685,857,839
8690,853,834
8695,836,831
8700,821,835
8705,826,828
8710,808,824
8715,805,823
8720,793,827
8725,792,821
8730,773,816
8735,776,808
8740,764,796
8745,764,797
8750,753,800
8755,757,791
8760,752,789
8765,750,782
8770,749,772
8775,756,768
8780,751,765
8785,741,761
8790,747,755
8795,758,751
8800,764,735
8805,766,729
8810,777,734
8815,782,719
8820,798,721
8825,790,715
8830,803,703
8835,813,702
8840,826,695
8845,835,690
8850,845,687
8855,870,682
8860,868,678
8865,883,680
8870,905,666
8875,907,667
8880,933,664
8885,948,656
8890,956,660
8895,966,659
8900,984,658
8905,1000,657
8910,1008,653
8915,1032,658
8920,1040,662
8925,1052,661
8930,1068,661
8935,1075,662
8940,1087,663
8945,1102,668
8950,1122,678
8955,1120,681
8960,1128,688
8965,1136,688
8970,1146,696
8975,1160,703
8980,1164,709
8985,1157,710
8990,1169,716
8995,1169,732
9000,1185,737
9005,1175,745
9010,1181,753
9015,1184,753
9020,1193,763
9025,1186,774
9030,1183,786
9035,1189,791
9040,1179,803
9045,1188,805
9050,1178,815
9055,1178,826
9060,1186,828
9065,1179,833
9070,1177,841
9075,1165,851
9080,1166,856
9085,1162,864
9090,1154,870
9095,1153,866
9100,1151,879
9105,1141,882
9110,1149,894
9115,1133,888
9120,1136,889
9125,1142,897
9130,1132,897
9135,1121,903
9140,1128,899
9145,1124,912
9150,1111,907
9155,1117,901
9160,1108,910
9165,1109,905
9170,1103,904
9175,1100,906
9180,1094,906
9185,1094,904
9190,1094,902
9195,1080,899
9200,1094,896
9205,1084,898
9210,1087,894
9215,1072,896
9220,1068,893
9225,1075,889
9230,1069,885
9235,1067,887
9240,1061,881
9245,1061,882
9250,1062,879
9255,1049,872
9260,1045,878
9265,1042,872
9270,1037,870
9275,1035,868
9280,1018,867
9285,1014,868
9290,1013,861
9295,1004,862
9300,994,862
9305,982,855
9310,981,856
9315,963,862
9320,962,858
9325,949,853
9330,933,858
9335,930,850
9340,921,848
9345,908,848
9350,901,843
9355,892,844
9360,880,839
9365,870,839
9370,859,842
9375,846,838
9380,848,838
9385,821,834
9390,813,829
9395,809,825
9400,806,823
9405,785,825
9410,772,816
9415,781,818
9420,771,812
9425,758,806
9430,767,801
9435,758,796
9440,757,787
9445,758,790
9450,757,778
9455,743,777
9460,747,771
9465,747,765
9470,749,760
9475,750,754
9480,760,749
9485,762,741
9490,769,738
9495,771,730
9500,778,728
9505,793,720
9510,790,709
9515,802,713
9520,808,698
9525,820,699
9530,832,693
9535,851,688
9540,859,683
9545,876,675
9550,888,680
9555,890,672
9560,914,670
9565,925,659
9570,934,665
9575,952,657
9580,969,658
9585,981,653
9590,986,655
9595,1005,655
9600,1017,654
9605,1029,659
9610,1056,658
9615,1053,657
9620,1073,666
9625,1082,666
9630,1090,666
9635,1094,678
9640,1117,677
9645,1134,675
9650,1133,693
9655,1145,686
9660,1147,701
9665,1162,702
9670,1165,715
9675,1174,719
9680,1178,728
9685,1176,735
9690,1178,743
9695,1177,752
9700,1180,759
9705,1187,768
9710,1191,774
9715,1186,778
9720,1188,792
9725,1184,792
9730,1182,802
9735,1185,808
9740,1190,817
9745,1178,829
9750,1170,835
9755,1178,845
9760,1171,841
9765,1169,855
9770,1166,863
9775,1150,868
9780,1155,873
9785,1147,875
9790,1153,884
9795,1148,885
9800,1148,890
9805,1130,894
9810,1133,900
9815,1134,899
9820,1126,902
9825,1114,907
9830,1119,904
9835,1118,905
9840,1112,907
9845,1114,904
9850,1108,906
9855,1110,909
9860,1097,909
9865,1100,901
9870,1103,900
9875,1093,899
9880,1089,910
9885,1089,900
9890,1080,904
9895,1070,897
9900,1087,895
9905,1073,891
9910,1069,896
9915,1067,888
9920,1071,885
9925,1060,881
9930,1061,885
9935,1059,882
9940,1058,881
9945,1048,871
9950,1046,874
9955,1034,871
9960,1035,873
9965,1030,869
9970,1022,867
9975,1011,869
9980,1002,862
9985,1002,863
9990,984,860
9995,982,858
10000,971,855
10005,958,854
10010,953,858
10015,941,854
10020,937,852
10025,919,848
10030,917,846
10035,901,844
10040,892,843
10045,876,843
10050,860,842
10055,861,842
10060,855,839
10065,849,834
10070,833,833
10075,815,830
10080,811,824
10085,801,825
10090,792,818
10095,784,819
10100,780,815
10105,785,810
10110,773,806
10115,762,804
10120,751,801
10125,753,796
10130,750,788
10135,747,781
10140,748,780
10145,754,771
10150,748,765
10155,747,756
10160,752,757
10165,758,759
10170,745,745
10175,761,739
10180,769,729
10185,777,731
10190,772,721
10195,799,717
10200,794,714
10205,818,704
10210,815,701
10215,838,693
10220,839,688
10225,856,680
10230,862,677
10235,877,677
10240,895,671
10245,910,666
10250,916,664
10255,931,661
10260,954,660
10265,970,661
10270,975,659
10275,988,650
10280,999,654
10285,1018,659
10290,1037,666
10295,1050,659
10300,1070,662
10305,1063,667
10310,1083,664
10315,1086,668
10320,1112,674
10325,1119,681
10330,1125,686
10335,1144,685
10340,1131,693
10345,1162,701
10350,1165,706
10355,1162,708
10360,1167,719
10365,1171,730
10370,1179,731
10375,1185,740
10380,1194,745
10385,1186,758
10390,1189,763
10395,1191,772
10400,1178,779
10405,1193,783
10410,1187,797
10415,1189,799
10420,1187,811
10425,1182,819
10430,1180,820
10435,1173,834
10440,1169,836
10445,1173,848
10450,1173,852
10455,1163,861
10460,1153,870
10465,1153,874
10470,1148,876
10475,1149,880
10480,1141,883
10485,1136,889
10490,1140,889
10495,1135,897
10500,1131,901
10505,1124,898
10510,1113,906
10515,1126,904
10520,1119,904
10525,1118,901
10530,1109,907
10535,1102,903
10540,1105,904
10545,1095,906
10550,1105,899
10555,1098,903
10560,1097,898
10565,1091,897
10570,1097,901
10575,1090,899
10580,1083,893
10585,1082,894
10590,1086,894
10595,1077,891
10600,1078,885
10605,1068,888
10610,1078,886
10615,1062,884
10620,1063,882
10625,1054,877
10630,1048,878
10635,1042,870
10640,1043,872
10645,1037,873
10650,1025,864
10655,1026,868
10660,1017,861
10665,1004,862
10670,999,862
10675,990,867
10680,984,860
10685,967,862
10690,971,854
10695,956,858
10700,944,847
10705,935,852
10710,930,848
10715,917,851
10720,910,849
10725,897,844
10730,886,842
10735,872,840
10740,865,837
10745,850,838
10750,845,839
10755,834,833
10760,820,826
10765,818,826
10770,809,825
10775,797,821
10780,784,821
10785,785,818
10790,771,814
10795,775,810
10800,754,798
10805,752,797
10810,760,795
10815,757,792
10820,746,780
10825,748,782
10830,751,775
10835,754,773
10840,752,765
10845,755,754
10850,745,750
10855,757,745
10860,762,737
10865,766,731
10870,781,725
10875,774,722
10880,795,719
10885,803,709
10890,802,702
10895,818,708
10900,829,699
10905,842,688
10910,848,683
10915,860,676
10920,873,671
10925,894,671
10930,907,667
10935,913,670
10940,922,666
10945,939,657
10950,959,664
10955,976,660
10960,990,654
10965,1000,660
10970,1019,654
10975,1031,653
10980,1038,657
10985,1057,659
10990,1060,660
10995,1078,663
11000,1088,666
11005,1099,672
11010,1112,674
11015,1125,681
11020,1133,685
11025,1137,688
11030,1149,695
11035,1163,699
11040,1159,712
11045,1162,719
11050,1180,722
11055,1189,726
11060,1175,739
11065,1181,747
11070,1187,753
11075,1190,763
11080,1186,770
11085,1184,778
11090,1189,786
11095,1193,792
11100,1178,805
11105,1188,810
11110,1181,818
11115,1170,822
11120,1174,836
11125,1169,840
11130,1178,849
11135,1172,849
11140,1174,855
11145,1164,863
11150,1160,870
11155,1159,871
11160,1149,875
11165,1154,876
11170,1142,887
11175,1140,892
11180,1130,892
11185,1117,906
11190,1123,903
11195,1128,902
11200,1123,902
11205,1120,902
11210,1122,908
11215,1108,905
11220,1100,906
11225,1103,907
11230,1105,908
11235,1097,909
11240,1094,907
11245,1088,905
11250,1092,908
11255,1095,897
11260,1080,899
11265,1086,899
11270,1087,897
11275,1079,893
11280,1070,894
11285,1077,898
11290,1065,885
11295,1066,889
11300,1055,884
11305,1055,884
11310,1062,876
11315,1059,876
11320,1045,873
11325,1036,874
11330,1028,872
11335,1024,869
11340,1019,869
11345,1021,866
11350,1005,863
11355,996,866
11360,997,856
11365,976,858
11370,974,851
11375,972,860
11380,955,853
11385,951,850
11390,947,850
11395,926,855
11400,915,848
11405,907,846
11410,897,841
11415,883,844
11420,884,841
11425,870,849
11430,852,839
11435,840,843
11440,846,832
11445,823,834
11450,822,830
11455,809,829
11460,794,821
11465,786,821
11470,784,813
11475,773,813
11480,768,805
11485,764,803
11490,761,798
11495,762,801
11500,754,790
11505,748,786
11510,739,781
11515,752,777
11520,747,766
11525,754,760
11530,756,757
11535,753,752
11540,749,741
11545,768,738
11550,756,736
11555,770,737
11560,772,723
11565,783,723
11570,796,714
11575,809,707
11580,819,694
11585,819,698
11590,830,691
11595,848,686
11600,866,678
11605,882,681
11610,886,672
11615,892,672
11620,915,667
11625,923,665
11630,947,662
11635,955,662
11640,971,653
11645,985,661
11650,999,657
11655,1021,660
11660,1020,661
11665,1041,654
11670,1044,664
11675,1068,662
11680,1069,668
11685,1100,663
11690,1099,671
11695,1104,676
11700,1127,686
11705,1137,681
11710,1147,689
11715,1148,692
11720,1151,697
11725,1161,707
11730,1164,715
11735,1161,722
11740,1179,728
11745,1174,737
11750,1179,738
11755,1182,752
11760,1188,756
11765,1185,765
11770,1185,773
11775,1184,786
11780,1188,790
11785,1189,797
11790,1189,806
11795,1183,818
11800,1179,820
11805,1186,830
11810,1167,835
11815,1166,838
11820,1171,850
11825,1163,854
11830,1170,861
11835,1160,866
11840,1160,877
11845,1152,874
11850,1149,887
11855,1149,889
11860,1143,895
11865,1133,896
11870,1125,894
11875,1129,897
11880,1124,903
11885,1124,900
11890,1112,906
11895,1115,908
11900,1106,908
11905,1113,905
11910,1112,906
11915,1103,906
11920,1100,904
11925,1101,909
11930,1101,908
11935,1083,897
11940,1101,896
11945,1085,896
11950,1081,898
11955,1085,896
11960,1086,895
11965,1080,891
11970,1080,890
11975,1073,883
11980,1057,881
11985,1063,884
11990,1057,885
11995,1057,880
12000,1060,878
12005,1051,872
12010,1039,873
12015,1045,872
12020,1036,872
12025,1018,866
12030,1018,863
12035,1005,866
12040,1011,856
12045,994,862
12050,992,857
12055,983,858
12060,971,858
12065,957,850
12070,947,853
12075,933,851
12080,935,847
12085,915,851
12090,914,845
12095,891,851
12100,884,839
12105,882,844
12110,870,838
12115,852,842
12120,848,843
12125,841,832
12130,824,832
12135,818,830
12140,814,829
12145,803,825
12150,787,825
12155,774,817
12160,787,814
12165,778,803
12170,761,808
12175,770,802
12180,761,797
12185,749,790
12190,749,787
12195,746,783
12200,741,775
12205,747,774
12210,751,766
12215,744,760
12220,749,759
12225,747,749
12230,759,745
12235,766,740
12240,770,735
12245,782,728
12250,776,717
12255,794,714
12260,792,708
12265,815,698
12270,823,699
12275,836,693
12280,839,694
12285,864,680
12290,870,682
12295,878,678
12300,897,667
12305,913,662
12310,923,665
12315,938,656
12320,953,657
12325,971,660
12330,987,659
12335,996,657
12340,1011,656
12345,1023,651
12350,1041,657
12355,1050,665
12360,1062,662
12365,1078,667
12370,1086,671
12375,1097,671
12380,1103,673
12385,1111,675
12390,1123,683
12395,1133,691
12400,1144,691
12405,1148,700
12410,1165,704
12415,1171,712
12420,1160,720
12425,1168,731
12430,1170,737
12435,1174,742
12440,1179,746
12445,1178,761
12450,1191,767
12455,1186,773
12460,1185,779
12465,1181,791
12470,1186,798
12475,1183,810
12480,1181,817
12485,1176,815
12490,1180,823
12495,1173,832
12500,1170,844
12505,1171,848
12510,1168,858
12515,1170,861
12520,1152,864
12525,1152,871
12530,1157,878
12535,1151,885
12540,1146,880
12545,1138,886
12550,1139,894
12555,1126,896
12560,1142,906
12565,1124,896
12570,1117,907
12575,1120,907
12580,1109,907
12585,1123,906
12590,1107,905
12595,1104,909
12600,1100,901
12605,1108,900
12610,1101,906
12615,1096,903
12620,1104,904
12625,1088,904
12630,1086,903
12635,1089,899
12640,1086,896
12645,1072,897
12650,1082,892
12655,1075,891
12660,1076,888
12665,1070,884
12670,1067,883
12675,1061,883
12680,1054,883
12685,1056,873
12690,1054,876
12695,1044,871
12700,1038,873
12705,1033,868
12710,1025,872
12715,1020,868
12720,1018,864
12725,1003,859
12730,997,858
12735,991,856
12740,981,854
12745,976,858
12750,957,856
12755,964,856
12760,937,851
12765,937,855
12770,933,855
12775,913,844
12780,898,846
12785,884,845
12790,877,844
12795,865,843
12800,865,838
12805,851,837
12810,847,836
12815,829,831
12820,824,832
12825,820,826
12830,804,824
12835,797,818
12840,782,822
12845,776,814
12850,772,808
12855,767,816
12860,767,805
12865,765,796
12870,759,793
12875,751,790
12880,751,785
12885,749,782
12890,750,776
12895,759,765
12900,751,765
12905,757,757
12910,758,751
12915,758,745
12920,758,738
12925,768,732
12930,767,723
12935,779,724
12940,795,716
12945,799,709
12950,816,702
12955,826,701
12960,830,690
12965,837,688
12970,850,684
12975,869,678
12980,880,681
12985,892,666
12990,903,663
12995,924,666
13000,937,662
13005,950,660
13010,965,652
13015,980,657
13020,992,655
13025,997,656
13030,1010,655
13035,1038,655
13040,1046,658
13045,1057,663
13050,1073,658
13055,1082,666
13060,1089,667
13065,1092,676
13070,1108,681
13075,1119,680
13080,1130,683
13085,1136,693
13090,1152,697
13095,1150,704
13100,1165,712
13105,1167,717
13110,1181,726
13115,1175,729
13120,1178,742
13125,1185,741
13130,1182,754
13135,1186,761
13140,1184,765
13145,1192,777
13150,1186,786
13155,1183,794
13160,1191,797
13165,1181,804
13170,1180,820
13175,1185,832
13180,1173,831
13185,1177,838
13190,1177,848
13195,1167,851
13200,1159,865
13205,1157,865
13210,1150,870
13215,1160,879
13220,1149,882
13225,1148,881
13230,1138,888
13235,1140,888
13240,1132,900
13245,1132,898
13250,1131,905
13255,1121,901
13260,1119,902
13265,1113,905
13270,1111,902
13275,1112,904
13280,1109,905
13285,1102,906
13290,1100,904
13295,1105,906
13300,1104,903
13305,1095,901
13310,1089,908
13315,1086,899
13320,1090,898
13325,1081,901
13330,1083,895
13335,1084,893
13340,1082,890
13345,1063,890
13350,1070,887
13355,1065,886
13360,1062,883
13365,1064,884
13370,1061,876
13375,1054,873
13380,1037,877
13385,1045,869
13390,1038,866
13395,1024,868
13400,1018,867
13405,1008,862
13410,1008,865
13415,1006,861
13420,997,855
13425,980,859
13430,977,852
13435,969,855
13440,964,854
13445,943,855
13450,933,855
13455,927,845
13460,910,849
13465,907,847
13470,892,849
13475,882,846
13480,880,841
13485,850,839
13490,867,840
13495,844,837
13500,831,830
13505,823,835
13510,806,824
13515,806,831
13520,797,822
13525,790,821
13530,780,820
13535,778,815
13540,768,807
13545,760,807
13550,757,796
13555,747,793
13560,752,790
13565,747,784
13570,749,785
13575,754,771
13580,753,771
13585,752,760
13590,749,758
13595,759,751
13600,761,748
13605,767,738
13610,763,733
13615,774,726
13620,786,726
13625,790,723
13630,792,708
13635,794,707
13640,811,698
13645,835,693
13650,837,691
13655,852,679
13660,862,680
13665,870,678
13670,891,674
13675,900,672
13680,915,666
13685,936,665
13690,951,659
13695,964,661
13700,981,654
13705,985,656
13710,1008,651
13715,1012,649
13720,1031,655
13725,1037,657
13730,1055,659
13735,1069,663
13740,1087,659
13745,1092,665
13750,1118,670
13755,1116,673
13760,1124,681
13765,1136,684
13770,1139,689
13775,1150,702
13780,1148,700
13785,1163,713
13790,1166,713
13795,1169,720
13800,1178,728
13805,1179,733
13810,1183,741
13815,1183,753
13820,1182,766
13825,1193,766
13830,1189,778
13835,1187,783
13840,1186,800
13845,1187,800
13850,1192,811
13855,1185,817
13860,1168,818
13865,1175,832
13870,1177,839
13875,1171,844
13880,1168,855
13885,1168,859
13890,1170,865
13895,1159,872
13900,1155,875
13905,1149,880
13910,1144,883
13915,1153,885
13920,1150,890
13925,1136,894
13930,1130,896
13935,1127,898
13940,1129,902
13945,1130,905
13950,1120,904
13955,1106,911
13960,1109,905
13965,1117,907
13970,1100,905
13975,1107,910
13980,1100,903
13985,1093,902
13990,1093,902
13995,1092,907
14000,1083,903
14005,1089,901
14010,1095,896
14015,1081,894
14020,1080,897
14025,1078,893
14030,1075,888
14035,1066,887
14040,1060,890
14045,1055,882
14050,1061,879
14055,1054,878
14060,1043,873
14065,1040,872
14070,1038,868
14075,1030,870
14080,1025,870
14085,1029,865
14090,1026,867
14095,1007,864
14100,996,861
14105,994,860
14110,986,862
14115,980,854
14120,970,855
14125,956,858
14130,944,846
14135,935,846
14140,926,846
14145,930,850
14150,905,846
14155,902,846
14160,892,843
14165,881,841
14170,870,847
14175,854,839
14180,840,837
14185,831,837
14190,825,825
14195,816,829
14200,816,828
14205,803,826
14210,792,821
14215,777,814
14220,776,815
14225,769,806
14230,772,811
14235,752,798
14240,761,795
14245,754,791
14250,739,784
14255,748,780
14260,738,785
14265,748,769
14270,745,766
14275,755,761
14280,759,757
14285,753,748
14290,758,743
14295,761,742
14300,769,729
14305,782,727
14310,788,719
14315,794,714
14320,798,711
14325,813,698
14330,824,697
14335,838,693
14340,853,683
14345,865,683
14350,876,678
14355,882,673
14360,903,671
14365,916,665
14370,924,660
14375,937,657
14380,950,657
14385,968,656
14390,978,653
14395,999,658
14400,1015,659
14405,1032,657
14410,1039,659
14415,1050,660
14420,1072,663
14425,1063,665
14430,1093,666
14435,1093,671
14440,1113,678
14445,1115,675
14450,1128,681
14455,1142,689
14460,1153,692
14465,1157,701
14470,1164,708
14475,1159,711
14480,1166,724
14485,1176,725
14490,1183,733
14495,1183,747
14500,1185,750
14505,1189,762
14510,1189,770
14515,1185,774
14520,1184,784
14525,1182,791
14530,1188,799
14535,1179,808
14540,1186,809
14545,1176,822
14550,1184,834
14555,1176,839
14560,1167,843
14565,1170,852
14570,1172,861
14575,1165,863
14580,1151,866
14585,1157,879
14590,1153,881
14595,1144,885
14600,1142,886
14605,1139,888
14610,1144,890
14615,1128,895
14620,1126,897
14625,1130,898
14630,1125,904
14635,1120,906
14640,1114,903
14645,1113,904
14650,1110,905
14655,1102,906
14660,1108,907
14665,1097,904
14670,1101,905
14675,1085,903
14680,1078,896
14685,1093,898
14690,1083,899
14695,1085,901
14700,1080,899
14705,1070,888
14710,1072,895
14715,1075,892
14720,1072,884
14725,1069,882
14730,1071,884
14735,1064,875
14740,1064,880
14745,1051,877
14750,1051,876
14755,1043,870
14760,1042,874
14765,1027,871
14770,1024,865
14775,1020,867
14780,1008,869
14785,1003,857
14790,997,864
14795,981,855
14800,987,856
14805,965,859
14810,963,853
14815,948,850
14820,939,854
14825,938,857
14830,919,848
14835,909,841
14840,908,844
14845,888,848
14850,878,843
14855,875,841
14860,855,834
14865,845,834
14870,837,841
14875,822,828
14880,820,829
14885,805,823
14890,794,830
14895,797,822
14900,784,818
14905,781,812
14910,769,807
14915,758,803
14920,759,801
14925,761,797
14930,755,789
14935,747,787
14940,743,781
14945,746,782
14950,747,774
14955,761,768
14960,755,758
14965,751,759
14970,758,750
14975,760,743
14980,763,736
14985,764,731
14990,780,721
14995,790,721
15000,796,711
15005,795,704
15010,804,700
15015,825,701
15020,831,691
15025,850,680
15030,855,682
15035,876,686
15040,883,678
15045,893,673
15050,907,671
15055,924,664
15060,933,664
15065,957,657
15070,968,663
15075,975,657
15080,994,657
15085,1005,654
15090,1034,660
15095,1031,661
15100,1048,660
15105,1060,662
15110,1074,667
15115,1087,663
15120,1088,666
15125,1104,676
15130,1120,677
15135,1126,682
15140,1137,689
15145,1137,698
15150,1152,702
15155,1161,710
15160,1164,716
15165,1171,719
15170,1169,724
15175,1174,733
15180,1175,745
15185,1186,751
15190,1189,758
15195,1178,766
15200,1190,772
15205,1182,774
15210,1190,796
15215,1185,802
15220,1184,802
15225,1180,810
15230,1186,822
15235,1174,830
15240,1183,836
15245,1167,838
15250,1161,848
15255,1172,858
15260,1165,859
15265,1149,869
15270,1157,869
15275,1149,875
15280,1152,877
15285,1147,889
15290,1134,892
15295,1140,895
15300,1133,896
15305,1124,903
15310,1138,909
15315,1119,901
15320,1125,906
15325,1113,903
15330,1112,901
15335,1100,905
15340,1109,906
15345,1096,909
15350,1104,906
15355,1101,907
15360,1087,907
15365,1103,905
15370,1088,905
15375,1091,899
15380,1090,899
15385,1082,899
15390,1083,898
15395,1075,890
15400,1072,893
15405,1076,889
15410,1076,889
15415,1068,880
15420,1063,877
15425,1047,877
15430,1049,873
15435,1053,877
15440,1046,868
15445,1031,870
15450,1032,871
15455,1023,863
15460,1024,865
15465,1020,861
15470,1005,864
15475,991,857
15480,991,863
15485,973,858
15490,972,853
15495,959,855
15500,950,854
15505,948,852
15510,930,854
15515,923,854
15520,914,848
15525,899,849
15530,892,841
15535,880,844
15540,863,843
15545,871,836
15550,856,837
15555,846,835
15560,827,833
15565,827,829
15570,812,826
15575,791,823
15580,795,821
15585,788,818
15590,782,811
15595,788,813
15600,762,805
15605,763,801
15610,760,800
15615,751,791
15620,752,786
15625,750,783
15630,747,778
15635,748,779
15640,734,767
15645,753,759
15650,760,759
15655,754,746
15660,764,748
15665,752,737
15670,770,735
15675,774,720
15680,784,719
15685,795,717
15690,801,711
15695,810,702
15700,822,694
15705,839,694
15710,840,690
15715,866,681
15720,870,679
15725,878,675
15730,894,670
15735,907,667
15740,920,668
15745,940,660
15750,953,663
15755,970,662
15760,975,662
15765,985,657
15770,1009,656
15775,1024,656
15780,1033,654
15785,1041,656
15790,1060,664
15795,1070,660
15800,1090,661
15805,1098,669
15810,1115,666
15815,1119,676
15820,1125,682
15825,1130,681
15830,1140,690
15835,1149,696
15840,1154,707
15845,1161,713
15850,1167,716
15855,1165,719
15860,1171,731
15865,1178,738
15870,1182,741
15875,1190,754
15880,1179,768
15885,1190,771
15890,1191,779
15895,1174,789
15900,1190,797
15905,1185,806
15910,1177,808
15915,1185,823
15920,1182,828
15925,1181,832
15930,1168,844
15935,1171,842
15940,1177,852
15945,1169,861
15950,1154,864
15955,1154,865
15960,1152,874
15965,1153,886
15970,1139,889
15975,1143,893
15980,1140,891
15985,1144,903
15990,1123,889
15995,1128,900
16000,1128,901
16004,1111,910
16010,1119,905
16015,1104,905
16020,1100,910
16024,1115,905
16030,1113,910
16035,1095,907
16040,1105,904
16045,1096,904
16050,1097,905
16055,1092,904
16059,1087,895
16065,1085,898
16070,1079,895
16075,1087,897
16079,1079,890
16085,1083,889
16090,1071,890
16094,1064,889
16100,1060,883
16105,1068,880
16110,1057,880
16114,1054,877
16120,1046,876
16125,1047,868
16129,1035,868
16135,1029,872
16140,1022,865
16145,1020,871
16149,1017,860
16155,1005,863
16160,994,865
16165,988,859
16170,991,860
16175,975,854
16180,971,858
16184,944,853
16190,933,854
16195,939,853
16200,919,849
16204,912,843
16210,900,847
16215,905,843
16219,889,845
16225,882,840
16230,872,840
16235,848,840
16239,842,840
16245,838,829
16250,822,829
16254,815,829
16260,809,828
16265,807,823
16270,800,814
16274,782,811
16280,771,814
16285,773,805
16290,763,802
16295,766,799
16300,757,795
16305,752,789
16309,755,786
16315,741,775
16320,750,776
16325,744,772
16329,750,763
16335,748,756
16340,753,754
16344,754,746
16350,765,738
16355,770,737
16360,774,732
16364,778,723
16370,788,718
16375,795,715
16379,806,705
16385,822,694
16390,834,692
16395,851,686
16400,848,682
16405,871,681
16410,875,678
16415,887,672
16420,902,669
16425,916,668
16430,936,666
16435,959,664
16440,954,655
16445,976,658
16450,994,658
16455,1005,655
16460,1018,654
16465,1027,654
16470,1043,660
16475,1055,660
16480,1072,662
16485,1079,663
16490,1098,671
16495,1102,677
16500,1109,681
16505,1122,681
16510,1127,685
16515,1132,694
16520,1149,701
16525,1155,705
16530,1160,705
16535,1161,716
16540,1168,726
16545,1179,728
16550,1179,742
16555,1177,741
16560,1188,756
16565,1191,762
16570,1190,767
16575,1197,778
16580,1189,784
16585,1189,794
16590,1199,806
16595,1185,811
16600,1186,816
16605,1180,826
16610,1186,832
16615,1185,840
16620,1173,850
16625,1165,851
16630,1173,860
16635,1164,859
16640,1156,864
16645,1153,875
16650,1148,876
16655,1143,886
16660,1147,887
16665,1134,895
16670,1136,893
16675,1132,902
16680,1131,898
16685,1120,906
16690,1122,902
16695,1126,905
16700,1112,909
16705,1115,909
16710,1121,908
16715,1111,911
16720,1107,905
16725,1105,905
16730,1103,908
16735,1087,900
16740,1093,902
16745,1092,899
16750,1085,896
16755,1087,895
16760,1079,892
16765,1079,897
16770,1079,889
16775,1073,894
16780,1070,891
16785,1068,881
16790,1059,877
16795,1068,877
16800,1056,878
16805,1051,879
16810,1049,873
16815,1045,879
16820,1038,869
16825,1032,871
16830,1024,872
16835,1017,867
16840,1016,859
16845,998,861
16850,992,859
16855,983,863
16860,979,857
16865,964,858
16870,947,857
16875,941,851
16880,934,849
16885,918,854
16890,913,845
16895,906,848
16900,896,844
16905,883,841
16910,875,843
16915,877,840
16920,856,838
16925,842,834
16930,841,833
16935,826,831
16940,818,829
16945,816,823
16950,796,822
16955,795,820
16960,779,815
16965,781,811
16970,766,809
16975,756,808
16980,763,800
16985,758,796
16990,759,793
16995,758,790
17000,754,782
17005,746,781
17010,752,767
17015,746,765
17020,750,758
17025,758,757
17030,754,745
17035,769,744
17040,769,739
17045,771,725
17050,778,724
17055,786,714
17060,798,709
17065,812,704
17070,824,699
17075,830,695
17080,830,686
17085,847,681
17090,858,681
17095,871,674
17100,889,674
17105,901,669
17110,912,661
17115,932,660
17120,938,662
17125,951,655
17130,965,659
17135,988,658
17140,1004,652
17145,1009,659
17150,1024,658
17155,1034,653
17160,1046,658
17165,1068,666
17170,1076,659
17175,1087,667
17180,1099,664
17185,1113,675
17190,1120,679
17195,1124,686
17200,1132,692
17205,1143,695
17210,1154,700
17215,1148,703
17220,1166,715
17225,1160,716
17230,1174,727
17235,1174,734
17240,1182,744
17245,1175,757
17250,1188,759
17255,1188,766
17260,1196,777
17265,1184,782
17270,1180,791
17275,1189,805
17280,1187,808
17285,1184,818
17290,1187,821
17295,1171,832
17300,1179,838
17305,1176,846
17310,1164,850
17315,1161,857
17320,1157,860
17325,1150,866
17330,1171,872
17335,1156,876
17340,1148,885
17345,1144,883
17350,1145,887
17355,1139,899
17360,1132,899
17365,1126,901
17370,1129,897
17375,1112,896
17380,1122,903
17385,1110,905
17390,1110,908
17395,1112,907
17400,1110,911
17405,1093,908
17410,1098,903
17415,1092,910
17420,1096,905
17425,1102,907
17430,1096,899
17435,1090,902
17440,1090,892
17445,1081,893
17450,1079,894
17455,1067,890
17460,1080,896
17465,1069,885
17470,1062,888
17475,1070,883
17480,1056,879
17485,1055,877
17490,1049,873
17495,1057,874
17500,1035,877
17505,1035,868
17510,1018,870
17515,1021,869
17520,1020,865
17525,1012,865
17530,1009,860
17535,995,862
17540,987,861
17545,980,855
17550,974,855
17555,955,858
17560,947,849
17565,935,851
17570,924,851
17575,934,854
17580,910,849
17585,898,842
17590,889,846
17595,896,839
17600,869,842
17605,860,838
17610,850,836
17615,837,832
17620,829,832
17625,821,828
17630,807,822
17635,811,825
17640,792,812
17645,790,820
17650,782,816
17655,771,808
17660,764,808
17665,764,801
17670,757,795
17675,759,797
17680,751,789
17685,742,787
17690,743,783
17695,745,775
17700,747,763
17705,745,761
17710,748,753
17715,745,747
17720,761,742
17725,759,734
17730,757,729
17735,777,730
17740,783,719
17745,798,719
17750,805,706
17755,804,705
17760,823,691
17765,838,692
17770,845,690
17775,851,684
17780,869,675
17785,891,673
17790,890,667
17795,908,666
17800,929,661
17805,933,658
17810,955,664
17815,962,655
17820,978,657
17825,997,654
17830,1016,657
17835,1029,658
17840,1036,660
17845,1042,660
17850,1061,666
17855,1078,668
17860,1085,666
17865,1101,670
17870,1104,672
17875,1115,677
17880,1127,684
17885,1143,687
17890,1138,699
17895,1152,698
17900,1159,700
17905,1145,711
17910,1161,717
17915,1178,729
17920,1179,730
17925,1177,739
17930,1184,750
17935,1182,759
17940,1186,765
17945,1183,775
17950,1185,781
17955,1179,787
17960,1186,800
17965,1188,804
17970,1179,815
17975,1181,820
17980,1175,832
17985,1176,837
17990,1172,846
17995,1171,850
18000,1174,852
18005,1165,860
18010,1158,871
18015,1147,870
18020,1150,880
18025,1145,882
18030,1141,891
18035,1141,891
18040,1143,893
18045,1128,898
18050,1120,896
18055,1124,901
18060,1127,905
18065,1118,907
18070,1121,907
18075,1118,910
18080,1108,912
18085,1111,907
18090,1107,908
18095,1105,906
18100,1092,900
18105,1092,905
18110,1095,909
18115,1092,906
18120,1092,901
18125,1086,899
18130,1073,894
18135,1076,893
18140,1085,891
18145,1085,890
18150,1066,889
18155,1064,883
18160,1068,886
18165,1060,883
18170,1059,878
18175,1050,883
18180,1045,879
18185,1048,874
18190,1038,871
18195,1039,869
18200,1024,866
18205,1025,865
18210,1014,867
18215,1011,861
18220,1004,865
18225,988,860
18230,975,858
18235,960,855
18240,973,851
18245,951,856
18250,935,851
18255,935,850
18260,923,844
18265,912,847
18270,901,847
18275,892,849
18280,887,846
18285,880,842
18290,857,835
18295,843,839
18300,837,838
18305,834,828
18310,819,831
18315,814,831
18320,806,820
18325,794,822
18330,786,816
18335,776,816
18340,773,813
18345,769,803
18350,772,802
18355,755,797
18360,758,798
18365,749,789
18370,755,783
18375,743,783
18380,745,776
18385,747,769
18390,751,761
18395,761,755
18400,755,751
18405,767,745
18410,769,742
18415,767,736
18420,771,720
18425,786,717
18430,791,715
18435,800,707
18440,813,706
18445,819,704
18450,836,695
18455,839,692
18460,864,686
18465,868,678
18470,883,676
18475,898,677
18480,905,667
18485,917,658
18490,931,663
18495,945,664
18500,970,658
18505,968,659
18510,1001,660
18515,1002,659
18520,1028,659
18525,1026,661
18530,1053,660
18535,1055,661
18540,1069,664
18545,1079,664
18550,1091,671
18555,1112,670
18560,1112,680
18565,1126,687
18570,1129,686
18575,1143,689
18580,1148,699
18585,1153,704
18590,1173,705
18595,1170,721
18600,1169,720
18605,1175,730
18610,1179,734
18615,1174,745
18620,1184,756
18625,1195,763
18630,1199,773
18635,1196,779
18640,1195,784
18645,1179,792
18650,1186,804
18655,1185,813
18660,1181,817
18665,1179,826
18670,1184,837
18675,1176,838
18680,1173,845
18685,1177,853
18690,1160,858
18695,1154,864
18700,1154,870
18705,1167,874
18710,1136,880
18715,1141,892
18720,1139,887
18725,1124,893
18730,1136,891
18735,1136,902
18740,1132,907
18745,1125,903
18750,1124,903
18755,1114,903
18760,1120,904
18765,1114,903
18770,1109,907
18775,1102,907
18780,1099,901
18785,1106,907
18790,1098,900
18795,1095,906
18800,1090,894
18805,1095,903
18810,1096,904
18815,1082,899
18820,1089,892
18825,1080,892
18830,1080,888
18835,1075,890
18840,1074,889
18845,1068,880
18850,1068,881
18855,1064,877
18860,1063,873
18865,1057,876
18870,1048,873
18875,1050,875
18880,1040,872
18885,1029,869
18890,1028,868
18895,1019,860
18900,1005,859
18905,1002,858
18910,993,858
18915,985,860
18920,973,855
18925,972,859
18930,965,854
18935,945,855
18940,933,852
18945,928,849
18950,912,854
18955,908,850
18960,889,847
18965,878,841
18970,872,845
18975,863,840
18980,846,837
18985,838,841
18990,825,834
18995,822,835
19000,814,831
19005,806,830
19010,791,826
19015,799,814
19020,782,819
19025,773,813
19030,773,807
19035,763,806
19040,759,799
19045,746,798
19050,754,793
19055,745,783
19060,745,783
19065,732,770
19070,747,773
19075,748,760
19080,745,760
19085,748,754
19090,757,744
19095,769,738
19100,768,734
19105,764,728
19110,776,721
19115,788,715
19120,790,710
19125,811,702
19130,817,701
19135,828,692
19140,837,692
19145,852,682
19150,866,681
19155,872,676
19160,893,675
19165,903,667
19170,920,668
19175,934,663
19180,947,660
19185,964,660
19190,972,656
19195,994,661
19200,999,655
19205,1015,656
19210,1034,659
19215,1048,661
19220,1071,657
19225,1065,657
19230,1087,664
19235,1094,665
19240,1101,671
19245,1115,675
19250,1124,681
19255,1124,687
19260,1145,692
19265,1151,698
19270,1155,703
19275,1163,713
19280,1169,718
19285,1165,729
19290,1180,727
19295,1182,738
19300,1183,745
19305,1189,753
19310,1190,765
19315,1189,770
19320,1192,783
19325,1183,790
19330,1186,793
19335,1185,799
19340,1183,804
19345,1181,815
19350,1173,826
19355,1180,833
19360,1181,837
19365,1177,851
19370,1170,858
19375,1172,855
19380,1157,867
19385,1159,866
19390,1156,872
19395,1156,876
19400,1149,883
19405,1144,892
19410,1127,891
19415,1129,893
19420,1130,903
19425,1123,907
19430,1127,901
19435,1122,901
19440,1128,904
19445,1113,902
19450,1111,903
19455,1114,911
19460,1100,905
19465,1102,905
19470,1106,910
19475,1094,907
19480,1097,900
19485,1082,903
19490,1090,898
19495,1090,898
19500,1093,893
19505,1078,893
19510,1092,897
19515,1078,894
19520,1079,889
19525,1067,887
19530,1067,883
19535,1070,880
19540,1067,881
19545,1059,877
19550,1045,873
19555,1042,874
19560,1036,870
19565,1045,872
19570,1029,868
19575,1030,861
19580,1014,868
19585,1009,865
19590,997,862
19595,995,863
19600,990,862
19605,968,856
19610,970,851
19615,955,854
19620,947,852
19625,946,855
19630,932,851
19635,919,850
19640,907,844
19645,901,843
19650,884,843
19655,875,842
19660,867,842
19665,857,841
19670,859,832
19675,835,833
19680,824,835
19685,817,830
19690,803,831
19695,800,827
19700,787,817
19705,787,819
19710,781,811
19715,777,808
19720,761,803
19725,764,799
19730,756,795
19735,749,796
19740,749,785
19745,754,783
19750,754,775
19755,750,770
19760,749,763
19765,753,759
19770,755,752
19775,754,743
19780,757,742
19785,768,732
19790,771,730
19795,776,721
19800,794,715
19805,806,710
19810,803,702
19815,822,707
19820,820,698
19825,840,688
19830,842,683
19835,862,682
19840,868,681
19845,893,673
19850,900,668
19855,918,668
19860,926,667
19865,938,662
19870,957,663
19875,967,656
19880,976,655
19885,1001,662
19890,1012,659
19895,1034,656
19900,1034,655
19905,1049,662
19910,1064,661
19915,1076,664
19920,1090,671
19925,1102,670
19930,1114,675
19935,1120,681
19940,1136,683
19945,1133,697
19950,1151,699
19955,1149,699
19960,1160,710
19965,1167,714
19970,1163,718
19975,1179,728
19980,1180,731
19985,1182,742
19990,1196,749
19995,1179,765
20000,1179,770
20005,1180,776
20010,1183,786
20015,1189,793
20020,1173,800
20025,1186,806
20030,1177,817
20035,1184,818
20040,1195,830
20045,1174,835
20050,1172,846
20055,1168,851
20060,1172,854
20065,1168,863
20070,1160,875
20075,1154,879
20080,1144,882
20085,1152,877
20090,1141,890
20095,1137,885
20100,1135,897
20105,1128,902
20110,1131,901
20115,1123,903
20120,1126,904
20125,1119,905
20130,1118,906
20135,1115,907
20140,1110,913
20145,1107,910
20150,1109,906
20155,1101,905
20160,1104,904
20165,1093,902
20170,1092,901
20175,1087,902
20180,1086,898
20185,1090,895
20190,1084,898
20195,1077,893
20200,1079,890
20205,1073,891
20210,1063,887
20215,1069,889
20220,1065,883
20225,1050,883
20230,1051,877
20235,1049,878
20240,1048,880
20245,1044,867
20250,1035,870
20255,1035,871
20260,1031,864
20265,1015,870
20270,1012,863
20275,1007,862
20280,989,864
20285,989,859
20290,977,859
20295,978,860
20300,961,853
20305,964,849
20310,945,853
20315,936,848
20320,926,849
20325,903,843
20330,901,849
20335,897,845
20340,873,838
20345,873,843
20350,857,835
20355,848,833
20360,840,832
20365,829,832
20370,823,830
20375,808,822
20380,809,825
20385,804,819
20390,789,821
20395,771,817
20400,780,814
20405,774,804
20410,765,805
20415,757,796
20420,760,792
20425,745,788
20430,743,779
20435,748,774
20440,758,768
20445,745,766
20450,752,758
20455,748,756
20460,752,750
20465,757,741
20470,763,739
20475,775,740
20480,778,727
20485,775,719
20490,790,711
20495,795,706
20500,819,701
20505,814,698
20510,833,696
20515,850,689
20520,863,677
20525,871,678
20530,880,677
20535,898,675
20540,906,670
20545,923,661
20550,941,656
20555,956,657
20560,972,655
20565,979,652
20570,1008,655
20575,1001,659
20580,1030,654
20585,1032,661
20590,1053,658
20595,1071,660
20600,1073,666
20605,1090,661
20610,1093,668
20615,1113,670
20620,1118,676
20625,1123,683
20630,1148,686
20635,1143,688
20640,1156,695
20645,1154,711
20650,1161,715
20655,1169,718
20660,1176,729
20665,1174,734
20670,1179,740
20675,1192,749
20680,1181,755
20685,1183,766
20690,1191,778
20695,1198,783
20700,1181,791
20705,1192,801
20710,1182,802
20715,1179,811
20720,1179,814
20725,1191,820
20730,1179,835
20735,1176,841
20740,1178,844
20745,1178,852
20750,1160,861
20755,1153,868
20760,1155,876
20765,1154,874
20770,1147,880
20775,1143,889
20780,1136,888
20785,1141,893
20790,1139,896
20795,1132,901
20800,1128,897
20805,1119,897
20810,1125,906
20815,1121,907
20820,1116,908
20825,1099,906
20830,1109,909
20835,1101,903
20840,1097,911
20845,1092,903
20850,1088,903
20855,1091,898
20860,1085,902
20865,1096,900
20870,1088,898
20875,1074,895
20880,1069,896
20885,1086,890
20890,1073,886
20895,1068,888
20900,1058,889
20905,1075,883
20910,1062,886
20915,1055,877
20920,1061,882
20925,1048,874
20930,1050,874
20935,1036,870
20940,1028,867
20945,1027,871
20950,1027,867
20955,1009,864
20960,998,863
20965,994,856
20970,989,858
20975,979,860
20980,970,848
20985,955,853
20990,952,856
20995,942,850
21000,938,847
21005,925,847
21010,913,850
21015,911,844
21020,890,847
21025,886,841
21030,872,844
21035,860,843
21040,839,834
21045,843,831
21050,841,829
21055,828,828
21060,824,828
21065,804,823
21070,801,827
21075,792,819
21080,794,813
21085,768,806
21090,761,805
21095,763,801
21100,755,799
21105,759,798
21110,746,788
21115,743,786
21120,755,782
21125,754,779
21130,754,770
21135,741,763
21140,751,755
21145,760,752
21150,755,743
21155,764,735
21160,768,729
21165,774,731
21170,777,726
21175,790,713
21180,800,704
21185,810,703
21190,816,700
21195,839,696
21200,841,691
21205,853,680
21210,868,683
21215,873,677
21220,891,670
21225,914,669
21230,920,666
21235,932,659
21240,951,660
21245,964,657
21250,981,655
21255,990,657
21260,1017,658
21265,1019,655
21270,1032,652
21275,1042,656
21280,1054,657
21285,1076,664
21290,1081,666
21295,1094,667
21300,1097,678
21305,1102,675
21310,1122,682
21315,1135,687
21320,1141,690
21325,1153,694
21330,1152,703
21335,1167,715
21340,1170,724
21345,1176,721
21350,1176,729
21355,1179,740
21360,1191,749
21365,1183,758
21370,1189,764
21375,1195,776
21380,1188,782
21385,1190,787
21390,1186,798
21395,1180,803
21400,1191,806
21405,1178,823
21410,1188,827
21415,1170,836
21420,1182,844
21425,1173,852
21430,1171,853
21435,1160,858
21440,1161,864
21445,1161,875
21450,1149,878
21455,1140,882
21460,1135,882
21465,1143,887
21470,1138,888
21475,1128,896
21480,1132,899
21485,1139,902
21490,1120,900
21495,1118,903
21500,1115,905
21505,1112,900
21510,1101,905
21515,1108,904
21520,1111,908
21525,1100,906
21530,1100,907
21535,1090,900
21540,1092,901
21545,1098,896
21550,1089,898
21555,1083,895
21560,1079,895
21565,1077,896
21570,1083,892
21575,1060,894
21580,1065,884
21585,1068,882
21590,1062,885
21595,1070,885
21600,1065,877
21605,1053,877
21610,1048,876
21615,1044,873
21620,1033,872
21625,1034,870
21630,1032,869
21635,1023,862
21640,1018,864
21645,1012,859
21650,999,863
21655,991,855
21660,982,861
21665,983,855
21670,965,856
21675,952,852
21680,947,854
21685,942,854
21690,922,849
21695,904,846
21700,909,847
21705,889,849
21710,883,843
21715,880,846
21720,852,841
21725,851,833
21730,844,836
21735,832,836
21740,823,829
21745,818,824
21750,803,827
21755,789,821
21760,789,815
21765,782,814
21770,772,814
21775,769,801
21780,771,807
21785,763,791
21790,757,792
21795,750,785
21800,752,784
21805,745,780
21810,745,774
21815,752,767
21820,750,765
21825,760,758
21830,747,751
21835,748,749
21840,760,745
21845,764,736
21850,770,732
21855,787,723
21860,793,716
21865,799,713
21870,807,709
21875,825,695
21880,843,696
21885,838,690
21890,849,688
21895,868,679
21900,873,676
21905,889,671
21910,899,671
21915,911,666
21920,941,665
21925,941,653
21930,960,653
21935,971,658
21940,988,651
21945,998,654
21950,1015,656
21955,1023,658
21960,1050,659
21965,1057,664
21970,1068,661
21975,1073,668
21980,1092,663
21985,1100,675
21990,1113,672
21995,1121,681
22000,1124,683
22005,1137,689
22010,1138,696
22015,1157,697
22020,1162,707
22025,1172,717
22030,1166,720
22035,1170,728
22040,1179,735
22045,1184,746
22050,1185,754
22055,1188,764
22060,1196,767
22065,1187,780
22070,1188,785
22075,1185,789
22080,1193,807
22085,1181,810
22090,1189,819
22095,1175,826
22100,1182,827
22105,1173,841
22110,1172,848
22115,1165,848
22120,1170,859
22125,1162,862
22130,1165,868
22135,1153,880
22140,1150,877
22145,1144,882
22150,1137,885
22155,1133,893
22160,1143,896
22165,1130,900
22170,1128,894
22175,1120,899
22180,1109,905
22185,1117,906
22190,1117,906
22195,1108,911
22200,1110,905
22205,1107,906
22210,1105,900
22215,1096,901
22220,1102,903
22225,1099,907
22230,1083,907
22235,1083,904
22240,1087,898
22245,1090,899
22250,1079,895
22255,1083,892
22260,1072,888
22265,1086,890
22270,1067,892
22275,1070,887
22280,1065,878
22285,1053,878
22290,1069,879
22295,1050,874
22300,1047,871
22305,1045,874
22310,1031,871
22315,1031,867
22320,1015,865
22325,1021,869
22330,1009,864
22335,1002,868
22340,995,856
22345,985,856
22350,974,852
22355,968,856
22360,970,857
22365,950,848
22370,941,853
22375,928,848
22380,917,845
22385,913,845
22390,892,846
22395,892,847
22400,882,841
22405,876,840
22410,863,838
22415,845,829
22420,836,838
22425,823,828
22430,825,829
22435,805,822
22440,794,827
22445,790,825
22450,787,815
22455,777,811
22460,771,805
22465,768,801
22470,759,801
22475,758,798
22480,753,794
22485,744,781
22490,744,786
22495,743,779
22500,754,770
22505,738,770
22510,753,766
22515,751,751
22520,752,747
22525,762,748
22530,763,736
22535,768,733
22540,777,725
22545,788,715
22550,787,714
22555,807,702
22560,821,703
22565,830,699
22570,835,693
22575,854,686
22580,862,681
22585,874,682
22590,883,674
22595,902,668
22600,919,670
22605,930,660
22610,940,660
22615,954,655
22620,966,654
22625,986,661
22630,1003,658
22635,1017,657
22640,1015,656
22645,1040,656
22650,1052,660
22655,1060,663
22660,1072,661
22665,1085,666
22670,1095,669
22675,1110,668
22680,1122,682
22685,1134,681
22690,1144,685
22695,1156,695
22700,1155,705
22705,1156,711
22710,1163,712
22715,1175,717
22720,1181,733
22725,1181,739
22730,1184,748
22735,1181,750
22740,1186,759
22745,1185,770
22750,1189,774
22755,1187,781
22760,1185,790
22765,1185,800
22770,1185,808
22775,1180,816
22780,1182,824
22785,1170,833
22790,1175,840
22795,1177,843
22800,1174,847
22805,1173,862
22810,1164,864
22815,1151,866
22820,1157,870
22825,1146,879
22830,1146,882
22835,1140,881
22840,1126,890
22845,1135,898
22850,1129,898
22855,1129,895
22860,1129,903
22865,1118,904
22870,1121,903
22875,1122,906
22880,1108,909
22885,1105,913
22890,1098,900
22895,1107,910
22900,1103,908
22905,1092,908
22910,1093,913
22915,1093,906
22920,1085,903
22925,1083,899
22930,1090,898
22935,1084,893
22940,1072,894
22945,1090,893
22950,1074,890
22955,1069,885
22960,1068,880
22965,1052,885
22970,1065,885
22975,1055,878
22980,1055,877
22985,1054,876
22990,1044,872
22995,1046,871
23000,1031,867
23005,1023,865
23010,1012,866
23015,1006,866
23020,1001,866
23025,1001,861
23030,985,857
23035,983,862
23040,972,858
23045,958,850
23050,959,852
23055,946,846
23060,930,856
23065,915,856
23070,906,847
23075,901,841
23080,884,845
23085,879,839
23090,875,844
23095,857,844
23100,849,842
23105,833,831
23110,827,832
23115,823,827
23120,810,823
23125,797,826
23130,787,821
23135,789,819
23140,779,813
23145,769,814
23150,759,811
23155,760,805
23160,758,799
23165,761,790
23170,760,794
23175,749,782
23180,752,782
23185,748,772
23190,753,764
23195,749,769
23200,745,753
23205,756,746
23210,766,738
23215,772,739
23220,766,732
23225,765,729
23230,788,714
23235,794,713
23240,802,712
23245,812,705
23250,821,695
23255,831,689
23260,851,688
23265,864,683
23270,867,680
23275,886,673
23280,894,674
23285,918,666
23290,922,663
23295,936,664
23300,954,655
23305,959,658
23310,986,658
23315,1000,656
23320,1012,660
23325,1022,664
23330,1037,656
23335,1052,659
23340,1060,659
23345,1076,661
23350,1085,663
23355,1092,672
23360,1112,675
23365,1111,682
23370,1116,681
23375,1134,680
23380,1145,689
23385,1149,697
23390,1155,709
23395,1171,715
23400,1182,722
23405,1163,724
23410,1178,740
23415,1183,741
23420,1186,750
23425,1189,753
23430,1184,761
23435,1185,775
23440,1189,781
23445,1187,787
23450,1185,792
23455,1188,808
23460,1193,814
23465,1173,820
23470,1184,829
23475,1175,830
23480,1159,843
23485,1176,850
23490,1168,859
23495,1162,860
23500,1164,869
23505,1148,877
23510,1159,872
23515,1148,879
23520,1152,892
23525,1144,888
23530,1137,896
23535,1133,897
23540,1136,898
23545,1127,893
23550,1117,904
23555,1115,905
23560,1119,905
23565,1103,902
23570,1112,909
23575,1106,903
23580,1102,907
23585,1097,906
23590,1096,906
23595,1093,904
23600,1097,903
23605,1096,901
23610,1089,894
23615,1078,899
23620,1075,895
23625,1079,894
23630,1082,887
23635,1075,891
23640,1067,887
23645,1069,884
23650,1066,888
23655,1061,882
23660,1050,876
23665,1051,876
23670,1043,875
23675,1041,877
23680,1040,867
23685,1037,866
23690,1034,865
23695,1013,865
23700,1011,863
23705,1010,862
23710,999,858
23715,990,860
23720,982,856
23725,972,855
23730,962,857
23735,947,855
23740,946,850
23745,937,848
23750,921,844
23755,911,844
23760,894,842
23765,899,838
23770,883,840
23775,878,842
23780,863,842
23785,851,837
23790,857,838
23795,833,834
23800,825,829
23805,817,827
23810,807,822
23815,792,824
23820,785,819
23825,780,815
23830,768,809
23835,776,807
23840,767,803
23845,757,799
23850,762,790
23855,748,787
23860,748,781
23865,746,779
23870,756,773
23875,751,770
23880,753,760
23885,747,757
23890,751,751
23895,756,744
23900,768,741
23905,765,729
23910,775,721
23915,784,714
23920,790,715
23925,794,711
23930,815,703
23935,827,693
23940,830,695
23945,851,686
23950,856,683
23955,857,687
23960,878,679
23965,901,675
23970,912,673
23975,927,661
23980,924,661
23985,951,657
23990,957,656
23995,974,654
24000,998,655
24005,1015,657
24010,1020,654
24015,1038,658
24020,1048,665
24025,1066,656
24030,1062,669
24035,1083,668
24040,1096,667
24045,1106,669
24050,1126,681
24055,1125,679
24060,1136,687
24065,1146,694
24070,1141,691
24075,1156,701
24080,1164,709
24085,1170,724
24090,1169,723
24095,1187,731
24100,1179,738
24105,1189,744
24110,1185,758
24115,1177,767
24120,1187,773
24125,1182,779
24130,1187,791
24135,1180,796
24140,1184,797
24145,1179,811
24150,1184,818
24155,1196,824
24160,1179,832
24165,1181,838
24170,1172,849
24175,1168,854
24180,1163,862
24185,1158,860
24190,1159,872
24195,1150,877
24200,1149,875
24205,1140,887
24210,1135,884
24215,1138,883
24220,1135,895
24225,1123,902
24230,1129,891
24235,1121,902
24240,1112,903
24245,1129,904
24250,1115,903
24255,1103,906
24260,1106,907
24265,1101,912
24270,1107,912
24275,1099,910
24280,1088,905
24285,1102,909
24290,1089,904
24295,1089,901
24300,1077,903
24305,1078,898
24310,1096,895
24315,1072,892
24320,1068,890
24325,1066,888
24330,1069,890
24335,1061,880
24340,1059,880
24345,1062,883
24350,1058,877
24355,1051,875
24360,1044,875
24365,1044,873
24370,1039,871
24375,1024,870
24380,1016,860
24385,1014,861
24390,1005,865
24395,1001,857
24400,986,862
24405,985,858
24410,971,859
24415,964,849
24420,949,855
24425,941,853
24430,940,847
24435,929,841
24440,918,845
24445,898,846
24450,893,846
24455,883,838
24460,874,839
24465,867,842
24470,854,838
24475,841,841
24480,839,837
24485,822,833
24490,802,831
24495,812,823
24500,796,820
24505,794,816
24510,786,811
24515,771,809
24520,779,814
24525,773,803
24530,757,798
24535,761,796
24540,761,793
24545,746,784
24550,755,779
24555,745,776
24560,750,772
24565,746,761
24570,756,763
24575,750,751
24580,760,746
24585,767,735
24590,767,729
24595,767,728
24600,777,718
24605,795,716
24610,805,709
24615,809,704
24620,816,696
24625,840,695
24630,836,688
24635,854,682
24640,863,678
24645,880,672
24650,880,672
24655,895,673
24660,925,667
24665,935,659
24670,943,663
24675,960,654
24680,980,655
24685,991,657
24690,1002,660
24695,1013,660
24700,1033,654
24705,1046,661
24710,1064,661
24715,1072,663
24720,1083,658
24725,1095,667
24730,1100,665
24735,1108,677
24740,1113,681
24745,1134,686
24750,1143,688
24755,1143,695
24760,1152,704
24765,1164,713
24770,1170,714
24775,1166,726
24780,1177,735
24785,1183,737
24790,1180,746
24795,1186,754
24800,1188,762
24805,1197,775
24810,1186,778
24815,1182,785
24820,1195,793
24825,1181,804
24830,1181,803
24835,1180,815
24840,1188,822
24845,1179,826
24850,1176,843
24855,1175,842
24860,1167,848
24865,1165,860
24870,1170,862
24875,1158,867
24880,1154,873
24885,1144,872
24890,1144,886
24895,1145,890
24900,1139,891
24905,1131,894
24910,1137,898
24915,1129,902
24920,1129,902
24925,1127,900
24930,1128,902
24935,1119,903
24940,1110,907
24945,1111,908
24950,1118,911
24955,1100,910
24960,1103,908
24965,1101,900
24970,1092,899
24975,1089,905
24980,1092,896
24985,1088,897
24990,1086,893
24995,1088,898
25000,1084,892
25005,1084,888
25010,1084,892
25015,1070,890
25020,1064,887
25025,1067,886
25030,1066,883
25035,1055,880
25040,1050,874
25045,1041,873
25050,1041,873
25055,1031,874
25060,1026,868
25065,1022,867
25070,1010,862
25075,1013,863
25080,998,866
25085,991,859
25090,982,865
25095,980,858
25100,968,859
25105,962,858
25110,949,851
25115,947,849
25120,927,846
25125,914,849
25130,911,844
25135,898,847
25140,882,841
25145,876,840
25150,869,836
25155,855,833
25160,849,839
25165,839,835
25170,830,833
25175,820,827
25180,796,826
25185,800,821
25190,782,818
25195,784,816
25200,775,816
25205,764,813
25210,759,805
25215,768,805
25220,753,794
25225,751,797
25230,752,790
25235,743,782
25240,752,777
25245,749,769
25250,742,762
25255,749,764
25260,762,756
25265,754,747
25270,765,741
25275,771,731
25280,770,729
25285,783,726
25290,787,714
25295,789,712
25300,803,704
25305,814,696
25310,819,692
25315,831,692
25320,853,689
25325,863,678
25330,870,676
25335,881,675
25340,903,674
25345,912,668
25350,931,664
25355,940,660
25360,955,661
25365,972,654
25370,983,655
25375,985,662
25380,1016,663
25385,1032,658
25390,1043,662
25395,1054,660
25400,1060,659
25405,1072,666
25410,1095,662
25415,1102,667
25420,1110,673
25425,1121,674
25430,1128,685
25435,1129,690
25440,1141,697
25445,1153,701
25450,1153,712
25455,1156,715
25460,1164,718
25465,1173,730
25470,1176,729
25475,1188,740
25480,1181,751
25485,1185,764
25490,1189,767
25495,1188,776
25500,1185,785
25505,1194,790
25510,1183,804
25515,1177,808
25520,1179,817
25525,1182,829
25530,1181,830
25535,1176,842
25540,1172,846
25545,1169,848
25550,1168,854
25555,1162,863
25560,1161,865
25565,1155,874
25570,1156,878
25575,1143,883
25580,1139,887
25585,1141,886
25590,1133,893
25595,1134,900
25600,1123,905
25605,1129,902
25610,1114,904
25615,1130,905
25620,1118,903
25625,1120,911
25630,1098,907
25635,1106,911
25640,1096,909
25645,1104,909
25650,1097,905
25655,1099,902
25660,1096,907
25665,1081,904
25670,1087,900
25675,1084,904
25680,1089,892
25685,1082,892
25690,1076,892
25695,1077,891
25700,1069,892
25705,1069,885
25710,1063,888
25715,1066,883
25720,1055,884
25725,1054,873
25730,1053,877
25735,1041,875
25740,1035,867
25745,1029,867
25750,1022,865
25755,1024,864
25760,1011,866
25765,1016,864
25770,985,860
25775,988,859
25780,977,851
25785,975,854
25790,974,855
25795,953,849
25800,942,853
25805,933,848
25810,911,847
25815,916,844
25820,894,848
25825,885,843
25830,878,844
25835,871,839
25840,858,839
25845,852,839
25850,836,833
25855,815,829
25860,821,826
25865,811,826
25870,808,820
25875,795,817
25880,781,815
25885,780,813
25890,775,810
25895,771,813
25900,769,804
25905,753,795
25910,758,795
25915,744,787
25920,740,784
25925,746,781
25930,753,772
25935,746,769
25940,751,762
25945,759,757
25950,762,753
25955,762,743
25960,765,735
25965,765,731
25970,776,725
25975,783,722
25980,794,714
25985,796,709
25990,816,702
25995,823,703
26000,839,695
26005,856,686
26010,855,682
26015,879,677
26020,879,674
26025,900,672
26030,911,666
26035,931,664
26040,939,658
26045,957,662
26050,964,659
26055,976,659
26060,1002,655
26065,1012,657
26070,1020,656
26075,1031,654
26080,1048,658
26085,1065,662
26090,1069,660
26095,1071,670
26100,1096,665
26105,1107,672
26110,1117,679
26115,1119,681
26120,1132,688
26125,1143,691
26130,1163,696
26135,1160,704
26140,1165,718
26145,1172,715
26150,1170,720
26155,1174,737
26160,1174,739
26165,1190,750
26170,1184,757
26175,1192,766
26180,1186,773
26185,1187,788
26190,1192,791
26195,1181,794
26200,1190,808
26205,1180,814
26210,1182,823
26215,1183,830
26220,1174,838
26225,1169,842
26230,1174,845
26235,1166,852
26240,1164,859
26245,1169,867
26250,1153,877
26255,1154,875
26260,1144,883
26265,1148,883
26270,1131,887
26275,1127,889
26280,1125,895
26285,1130,897
26290,1130,898
26295,1128,902
26300,1117,903
26305,1119,903
26310,1118,908
26315,1111,905
26320,1110,905
26325,1108,903
26330,1101,903
26335,1094,901
26340,1095,908
26345,1092,904
26350,1091,905
26355,1088,902
26360,1080,903
26365,1089,897
26370,1085,893
26375,1086,891
26380,1083,889
26385,1068,889
26390,1066,888
26395,1067,882
26400,1069,881
26405,1063,877
26410,1044,881
26415,1039,873
26420,1041,875
26425,1043,869
26430,1031,868
26435,1033,864
26440,1020,864
26445,1019,861
26450,1003,864
26455,1003,860
26460,994,854
26465,973,855
26470,972,855
26475,953,851
26480,944,853
26485,940,849
26490,928,851
26495,926,850
26500,916,843
26505,892,850
26510,897,843
26515,881,843
26520,872,844
26525,867,839
26530,848,836
26535,844,839
26540,825,834
26545,826,827
26550,814,821
26555,797,821
26560,793,818
26565,789,821
26570,776,814
26575,776,806
26580,774,806
26585,769,806
26590,762,798
26595,756,796
26600,745,788
26605,746,788
26610,745,775
26615,743,769
26620,749,765
26625,748,764
26630,747,758
26635,750,750
26640,757,744
26645,772,741
26650,772,730
26655,769,725
26660,779,721
26665,798,712
26670,795,713
26675,811,708
26680,814,699
26685,830,689
26690,849,688
26695,855,686
26700,865,682
26705,877,674
26710,896,673
26715,902,670
26720,916,662
26725,930,666
26730,955,660
26735,968,654
26740,965,654
26745,996,654
26750,1012,654
26755,1017,661
26760,1037,654
26765,1041,657
26770,1056,661
26775,1071,662
26780,1076,662
26785,1086,671
26790,1101,669
26795,1115,680
26800,1124,686
26805,1128,693
26810,1144,691
26815,1152,694
26820,1151,703
26825,1150,710
26830,1170,713
26835,1171,728
26840,1173,730
26845,1176,741
26850,1188,740
26855,1189,750
26860,1184,761
26865,1189,768
26870,1177,779
26875,1179,788
26880,1185,795
26885,1185,805
26890,1185,811
26895,1196,815
26900,1179,829
26905,1179,832
26910,1180,841
26915,1170,848
26920,1164,854
26925,1158,854
26930,1159,868
26935,1155,871
26940,1155,879
26945,1155,880
26950,1146,883
26955,1143,888
26960,1139,896
26965,1132,895
26970,1135,902
26975,1120,898
26980,1124,904
26985,1120,902
26990,1126,904
26995,1111,902
27000,1109,910
27005,1106,905
27010,1106,902
27015,1101,903
27020,1097,910
27025,1097,907
27030,1097,903
27035,1096,902
27040,1096,902
27045,1089,904
27050,1076,895
27055,1082,894
27060,1086,892
27065,1072,888
27070,1074,894
27075,1074,888
27080,1064,886
27085,1073,881
27090,1063,881
27095,1052,881
27100,1052,873
27105,1051,875
27110,1035,876
27115,1034,869
27120,1032,869
27125,1021,867
27130,1007,868
27135,1007,863
27140,992,859
27145,1000,856
27150,984,857
27155,972,855
27160,968,853
27165,955,850
27170,941,850
27175,927,848
27180,921,853
27185,911,847
27190,908,849
27195,897,850
27200,884,843
27205,873,844
27210,867,835
27215,855,837
27220,840,835
27225,833,830
27230,823,832
27235,799,830
27240,812,822
27245,804,824
27250,787,824
27255,780,818
27260,775,810
27265,764,807
27270,763,805
27275,756,797
27280,751,796
27285,751,790
27290,748,779
27295,746,775
27300,743,769
27305,751,773
27310,754,766
27315,743,759
27320,752,754
27325,756,746
27330,766,739
27335,770,729
27340,777,728
27345,778,722
27350,797,719
27355,793,706
27360,808,707
27365,821,701
27370,827,694
27375,834,693
27380,860,684
27385,868,681
27390,872,675
27395,890,678
27400,894,669
27405,917,665
27410,936,661
27415,953,663
27420,963,650
27425,976,660
27430,983,659
27435,1007,653
27440,1011,653
27445,1029,656
27450,1033,655
27455,1055,664
27460,1069,659
27465,1085,668
27470,1088,662
27475,1109,671
27480,1104,680
27485,1120,679
27490,1136,683
27495,1142,692
27500,1140,694
27505,1161,703
27510,1148,708
27515,1164,714
27520,1182,725
27525,1172,731
27530,1178,736
27535,1193,752
27540,1185,751
27545,1184,758
27550,1189,771
27555,1188,777
27560,1196,784
27565,1186,796
27570,1182,798
27575,1183,808
27580,1193,816
27585,1176,822
27590,1182,833
27595,1177,837
27600,1171,845
27605,1166,848
27610,1175,855
27615,1161,863
27620,1156,870
27625,1152,874
27630,1144,880
27635,1147,886
27640,1136,882
27645,1134,890
27650,1130,897
27655,1131,900
27660,1126,898
27665,1128,906
27670,1115,906
27675,1116,906
27680,1107,908
27685,1103,913
27690,1114,909
27695,1108,910
27700,1097,905
27705,1105,903
27710,1099,908
27715,1098,901
27720,1082,903
27725,1088,895
27730,1089,895
27735,1086,896
27740,1088,896
27745,1090,891
27750,1074,889
27755,1075,886
27760,1074,884
27765,1067,884
27770,1071,879
27775,1058,879
27780,1042,882
27785,1042,877
27790,1043,875
27795,1051,874
27800,1029,870
27805,1029,869
27810,1033,864
27815,1013,859
27820,1004,862
27825,1004,864
27830,993,858
27835,981,858
27840,974,861
27845,973,854
27850,963,854
27855,949,845
27860,938,849
27865,930,853
27870,915,853
27875,904,848
27880,897,850
27885,896,844
27890,875,843
27895,861,836
27900,855,833
27905,843,842
27910,835,837
27915,826,835
27920,821,827
27925,814,826
27930,798,819
27935,798,819
27940,785,822
27945,771,809
27950,772,809
27955,768,804
27960,762,800
27965,752,799
27970,744,787
27975,746,790
27980,746,779
27985,751,777
27990,745,771
27995,752,764
28000,761,756
28005,751,760
28010,761,749
28015,763,747
28020,771,731
28025,770,728
28030,783,725
28035,786,714
28040,798,711
28045,811,707
28050,815,702
28055,823,697
28060,834,693
28065,845,684
28070,864,682
28075,863,677
28080,884,674
28085,901,675
28090,912,670
28095,922,670
28100,940,663
28105,944,661
28110,971,656
28115,990,653
28120,999,657
28125,1019,654
28130,1029,659
28135,1038,660
28140,1053,655
28145,1056,670
28150,1079,665
28155,1085,667
28160,1097,672
28165,1115,677
28170,1122,680
28175,1138,684
28180,1129,686
28185,1151,696
28190,1148,706
28195,1158,707
28200,1167,718
28205,1171,723
28210,1179,729
28215,1189,734
28220,1175,742
28225,1187,750
28230,1177,759
28235,1184,773
28240,1193,775
28245,1193,782
28250,1188,791
28255,1180,802
28260,1188,811
28265,1194,817
28270,1187,824
28275,1178,834
28280,1179,837
28285,1175,837
28290,1168,847
28295,1158,857
28300,1172,863
28305,1162,866
28310,1152,873
28315,1152,876
28320,1150,884
28325,1149,879
28330,1143,891
28335,1142,895
28340,1137,896
28345,1128,897
28350,1127,898
28355,1131,904
28360,1122,907
28365,1120,908
28370,1099,902
28375,1107,903
28380,1118,912
28385,1102,912
28390,1103,904
28395,1099,905
28400,1094,904
28405,1099,903
28410,1094,905
28415,1092,906
28420,1095,899
28425,1093,899
28430,1070,891
28435,1077,893
28440,1070,888
28445,1062,886
28450,1066,885
28455,1060,882
28460,1057,883
28465,1064,879
28470,1046,877
28475,1043,879
28480,1032,874
28485,1032,866
28490,1030,865
28495,1017,873
28500,1018,867
28505,1018,870
28510,1001,860
28515,1005,863
28520,991,855
28525,978,858
28530,978,852
28535,960,846
28540,946,853
28545,939,852
28550,926,843
28555,923,854
28560,910,845
28565,892,843
28570,889,840
28575,874,840
28580,870,835
28585,862,841
28590,844,841
28595,841,833
28600,820,825
28605,820,825
28610,817,825
28615,806,824
28620,798,819
28625,787,818
28630,782,810
28635,784,804
28640,769,806
28645,764,797
28650,756,801
28655,765,794
28660,760,794
28665,756,788
28670,744,777
28675,746,773
28680,746,766
28685,743,765
28690,755,756
28695,762,749
28700,763,742
28705,765,731
28710,775,731
28715,786,722
28720,780,724
28725,782,710
28730,801,709
28735,812,701
28740,828,694
28745,834,696
28750,846,684
28755,859,685
28760,878,674
28765,886,674
28770,895,671
28775,906,668
28780,933,662
28785,935,661
28790,958,662
28795,961,662
28800,978,654
28805,990,657
28810,996,661
28815,1017,652
28820,1028,661
28825,1046,659
28830,1056,660
28835,1071,664
28840,1082,665
28845,1100,669
28850,1099,674
28855,1114,678
28860,1131,680
28865,1131,683
28870,1140,696
28875,1160,701
28880,1153,704
28885,1156,711
28890,1169,718
28895,1165,724
28900,1176,735
28905,1171,737
28910,1185,749
28915,1192,755
28920,1192,761
28925,1183,768
28930,1193,784
28935,1193,789
28940,1185,794
28945,1191,806
28950,1183,810
28955,1183,819
28960,1171,828
28965,1172,830
28970,1176,843
28975,1167,846
28980,1170,853
28985,1161,863
28990,1165,868
28995,1152,871
29000,1148,876
29005,1147,884
29010,1144,887
29015,1143,893
29020,1136,892
29025,1127,894
29030,1129,900
29035,1122,908
29040,1119,899
29045,1118,906
29050,1112,902
29055,1121,906
29060,1118,907
29065,1108,910
29070,1108,904
29075,1101,907
29080,1106,903
29085,1098,903
29090,1095,900
29095,1098,902
29100,1088,901
29105,1089,896
29110,1084,891
29115,1083,891
29120,1072,884
29125,1074,886
29130,1084,885
29135,1062,885
29140,1067,883
29145,1062,883
29150,1056,881
29155,1048,877
29160,1047,874
29165,1043,871
29170,1041,874
29175,1030,873
29180,1031,866
29185,1011,867
29190,1009,864
29195,1007,863
29200,999,864
29205,996,863
29210,980,855
29215,970,850
29220,961,857
29225,952,857
29230,943,851
29235,933,852
29240,919,851
29245,912,855
29250,897,844
29255,890,847
29260,891,842
29265,870,839
29270,868,836
29275,854,838
29280,836,830
29285,837,832
29290,814,832
29295,820,832
29300,801,823
29305,803,819
29310,787,823
29315,789,817
29320,781,813
29325,760,804
29330,759,800
29335,747,794
29340,762,798
29345,744,794
29350,748,781
29355,753,780
29360,746,772
29365,750,771
29370,744,765
29375,755,758
29380,753,753
29385,755,748
29390,767,736
29395,775,732
29400,780,728
29405,785,722
29410,791,717
29415,804,705
29420,816,705
29425,819,703
29430,833,698
29435,834,690
29440,857,677
29445,872,678
29450,885,673
29455,894,672
29460,899,664
29465,918,666
29470,936,661
29475,948,656
29480,952,658
29485,973,655
29490,996,655
29495,1004,659
29500,1009,654
29505,1034,653
29510,1052,660
29515,1056,664
29520,1077,664
29525,1074,666
29530,1089,669
29535,1101,675
29540,1111,675
29545,1125,680
29550,1133,688
29555,1143,694
29560,1145,699
29565,1158,703
29570,1160,714
29575,1176,718
29580,1178,723
29585,1179,736
29590,1181,731
29595,1183,752
29600,1186,757
29605,1186,766
29610,1178,771
29615,1184,783
29620,1191,784
29625,1190,795
29630,1187,801
29635,1188,808
29640,1181,820
29645,1183,825
29650,1181,830
29655,1177,842
29660,1169,848
29665,1175,853
29670,1172,857
29675,1157,870
29680,1149,866
29685,1151,871
29690,1153,883
29695,1150,880
29700,1141,888
29705,1130,890
29710,1137,890
29715,1132,896
29720,1123,904
29725,1122,903
29730,1114,904
29735,1118,907
29740,1110,905
29745,1111,905
29750,1117,904
29755,1099,908
29760,1102,906
29765,1102,910
29770,1099,899
29775,1096,901
29780,1087,901
29785,1083,899
29790,1090,899
29795,1084,893
29800,1080,894
29805,1080,894
29810,1071,891
29815,1060,888
29820,1064,885
29825,1061,884
29830,1061,885
29835,1064,879
29840,1059,876
29845,1041,877
29850,1045,872
29855,1041,867
29860,1034,872
29865,1036,871
29870,1018,868
29875,1013,867
29880,998,860
29885,989,861
29890,998,860
29895,981,856
29900,973,856
29905,964,855
29910,954,857
29915,948,855
29920,931,859
29925,929,849
29930,912,848
29935,908,843
29940,895,848
29945,885,843
29950,875,845
29955,865,840
29960,852,837
29965,843,836
29970,834,831
29975,814,829
29980,818,824
29985,796,823
29990,801,818
29995,787,820
30000,785,817
30005,782,810
30010,767,808
30015,761,800
30020,758,798
30025,748,793
30030,752,791
30035,754,786
30040,750,778
30045,744,773
30050,756,769
30055,748,762
30060,755,754
30065,747,749
30070,761,746
30075,758,742
30080,769,735
30085,775,727
30090,782,722
30095,787,718
30100,805,710
30105,809,711
30110,806,700
30115,824,692
30120,832,688
30125,855,687
30130,862,680
30135,878,673
30140,889,676
30145,909,669
30150,913,658
30155,934,663
30160,952,660
30165,957,661
30170,973,654
30175,992,655
30180,1005,658
30185,1009,658
30190,1027,661
30195,1037,663
30200,1050,657
30205,1064,665
30210,1080,665
30215,1094,668
30220,1095,672
30225,1112,672
30230,1119,683
30235,1126,685
30240,1149,689
30245,1144,695
30250,1159,701
30255,1161,708
30260,1159,718
30265,1165,720
30270,1173,732
30275,1176,735
30280,1189,743
30285,1182,756
30290,1192,764
30295,1183,774
30300,1194,772
30305,1188,782
30310,1188,798
30315,1184,793
30320,1178,813
30325,1183,815
30330,1173,824
30335,1181,829
30340,1174,839
30345,1172,843
30350,1167,854
30355,1163,861
30360,1156,860
30365,1171,873
30370,1156,869
30375,1156,879
30380,1151,881
30385,1138,887
30390,1132,894
30395,1142,894
30400,1139,902
30405,1127,902
30410,1119,901
30415,1121,900
30420,1123,905
30425,1110,904
30430,1109,904
30435,1110,901
30440,1114,904
30445,1099,904
30450,1109,904
30455,1094,903
30460,1089,904
30465,1098,910
30470,1097,900
30475,1095,897
30480,1080,895
30485,1085,890
30490,1091,897
30495,1074,898
30500,1073,894
30505,1066,893
30510,1068,894
30515,1059,887
30520,1051,880
30525,1061,875
30530,1046,874
30535,1047,880
30540,1041,869
30545,1030,870
30550,1022,869
30555,1023,869
30560,1012,866
30565,1002,863
30570,1005,858
30575,998,855
30580,977,859
30585,972,863
30590,965,854
30595,962,853
30600,944,853
30605,937,852
30610,932,847
30615,916,851
30620,905,846
30625,902,846
30630,888,848
30635,863,835
30640,862,841
30645,856,843
30650,849,839
30655,830,832
30660,831,832
30665,820,832
30670,810,825
30675,810,823
30680,790,818
30685,779,818
30690,772,814
30695,764,808
30700,758,805
30705,761,799
30710,751,795
30715,749,796
30720,741,787
30725,753,782
30730,749,772
30735,751,765
30740,757,768
30745,749,757
30750,749,752
30755,754,744
30760,753,742
30765,769,732
30770,772,726
30775,772,725
30780,782,718
30785,789,714
30790,810,703
30795,820,701
30800,829,695
30805,830,695
30810,842,688
30815,864,686
30820,870,674
30825,890,672
30830,903,666
30835,925,669
30840,917,669
30845,941,663
30850,957,654
30855,967,661
30860,983,660
30865,1005,652
30870,1006,653
30875,1029,657
30880,1036,655
30885,1061,658
30890,1066,665
30895,1078,667
30900,1079,673
30905,1103,665
30910,1105,674
30915,1120,676
30920,1131,685
30925,1153,689
30930,1143,694
30935,1144,698
30940,1157,704
30945,1161,714
30950,1178,719
30955,1169,733
30960,1170,736
30965,1183,743
30970,1188,753
30975,1182,759
30980,1192,766
30985,1187,775
30990,1189,780
30995,1179,793
31000,1184,801
31005,1192,805
31010,1180,814
31015,1174,818
31020,1181,829
31025,1176,835
31030,1168,847
31035,1166,853
31040,1164,857
31045,1163,866
31050,1155,864
31055,1156,872
31060,1156,877
31065,1138,876
31070,1138,884
31075,1143,896
31080,1130,895
31085,1142,895
31090,1128,900
31095,1127,900
31100,1124,898
31105,1115,903
31110,1120,904
31115,1116,905
31120,1115,905
31125,1103,902
31130,1101,909
31135,1095,910
31140,1097,908
31145,1102,899
31150,1088,907
31155,1088,900
31160,1081,899
31165,1090,900
31170,1088,896
31175,1087,893
31180,1082,890
31185,1073,887
31190,1077,885
31195,1073,888
31200,1064,878
31205,1062,879
31210,1055,883
31215,1048,876
31220,1042,875
31225,1044,876
31230,1042,870
31235,1036,865
31240,1017,874
31245,1013,869
31250,1012,864
31255,1005,865
31260,990,856
31265,985,861
31270,982,858
31275,975,855
31280,964,848
31285,955,857
31290,941,850
31295,935,846
31300,923,847
31305,918,845
31310,902,846
31315,890,837
31320,875,846
31325,868,838
31330,870,842
31335,851,838
31340,836,831
31345,829,835
31350,815,823
31355,803,824
31360,803,824
31365,788,823
31370,794,823
31375,778,812
31380,775,811
31385,764,805
31390,758,801
31395,770,799
31400,754,792
31405,751,782
31410,751,784
31415,762,773
31420,749,779
31425,744,771
31430,747,758
31435,753,755
31440,761,748
31445,757,748
31450,770,735
31455,770,729
31460,782,729
31465,786,720
31470,788,716
31475,800,709
31480,816,705
31485,827,701
31490,837,695
31495,851,683
31500,851,686
31505,874,677
31510,891,674
31515,895,672
31520,910,672
31525,933,664
31530,942,663
31535,952,659
31540,971,661
31545,976,663
31550,993,658
31555,1004,656
31560,1023,659
31565,1029,656
31570,1046,657
31575,1068,661
31580,1071,665
31585,1086,662
31590,1089,667
31595,1102,673
31600,1112,681
31605,1131,680
31610,1138,690
31615,1142,695
31620,1155,698
31625,1159,708
31630,1169,714
31635,1180,718
31640,1174,723
31645,1168,737
31650,1180,739
31655,1179,751
31660,1189,765
31665,1192,768
31670,1193,772
31675,1182,785
31680,1186,792
31685,1191,802
31690,1184,803
31695,1177,812
31700,1182,816
31705,1178,829
31710,1180,831
31715,1180,836
31720,1168,850
31725,1162,856
31730,1170,861
31735,1163,870
31740,1148,871
31745,1148,875
31750,1147,878
31755,1141,888
31760,1128,888
31765,1132,894
31770,1136,891
31775,1124,902
31780,1132,902
31785,1118,902
31790,1123,905
31795,1114,903
31800,1112,908
31805,1110,904
31810,1101,907
31815,1110,904
31820,1096,911
31825,1095,901
31830,1095,904
31835,1092,899
31840,1089,901
31845,1083,896
31850,1089,898
31855,1082,898
31860,1079,897
31865,1082,891
31870,1074,895
31875,1072,885
31880,1072,884
31885,1069,882
31890,1057,880
31895,1059,879
31900,1051,879
31905,1054,874
31910,1039,870
31915,1042,869
31920,1029,869
31925,1019,866
31930,1016,864
31935,1013,859
31940,1008,870
31945,999,863
31950,994,858
31955,977,861
31960,973,852
31965,964,853
31970,956,854
31975,937,850
31980,935,848
31985,924,853
31990,913,845
31995,903,846
32000,899,845
32005,881,843
32009,872,842
32015,865,838
32020,852,838
32025,841,827
32030,825,825
32034,823,833
32040,815,823
32045,806,830
32049,791,825
32055,787,816
32060,780,811
32064,769,810
32070,764,808
32075,775,804
32080,756,792
32085,750,791
32090,753,788
32095,751,784
32100,752,776
32104,740,766
32110,748,771
32115,745,764
32119,752,757
32125,759,747
32130,742,743
32134,771,738
32140,773,731
32145,779,731
32150,773,723
32155,793,711
32159,795,705
32165,807,703
32170,823,697
32174,831,689
32180,843,688
32185,849,685
32189,867,677
32195,881,676
32200,895,671
32205,911,670
32210,930,664
32215,933,671
32220,949,658
32225,967,657
32229,986,656
32235,988,657
32240,1009,661
32244,1025,659
32250,1035,657
32255,1053,660
32259,1051,667
32265,1068,661
32270,1086,665
32275,1090,665
32280,1104,680
32284,1111,679
32290,1124,688
32295,1137,685
32299,1139,697
32305,1151,695
32310,1157,704
32314,1168,710
32320,1168,716
32325,1165,731
32330,1185,733
32335,1188,741
32340,1175,746
32345,1181,757
32350,1182,760
32354,1188,773
32360,1189,779
32365,1191,781
32369,1180,800
32375,1191,803
32380,1183,813
32384,1182,823
32390,1178,831
32395,1183,834
32400,1170,845
32405,1170,847
32409,1175,854
32415,1160,863
32420,1163,862
32424,1164,869
32430,1159,874
32435,1147,885
32439,1145,883
32445,1135,889
32450,1139,889
32455,1136,893
32460,1135,891
32465,1123,901
32470,1131,902
32475,1117,901
32479,1121,911
32485,1115,905
32490,1112,909
32494,1112,910
32500,1102,906
32505,1105,907
32509,1104,902
32515,1095,903
32520,1091,906
32525,1092,906
32530,1088,904
32534,1089,904
32540,1081,894
32545,1080,899
32549,1092,891
32555,1077,888
32560,1076,889
32564,1062,886
32570,1067,880
32575,1070,882
32580,1055,883
32585,1051,875
32590,1054,875
32595,1049,872
32600,1039,876
32604,1024,871
32610,1027,878
32615,1021,870
32619,1013,863
32625,1007,864
32630,997,856
32634,986,858
32640,985,855
32645,967,857
32650,961,854
32655,953,848
32659,949,852
32665,942,856
32670,924,847
32674,923,854
32680,903,845
32685,893,842
32689,884,848
32695,873,841
32700,864,840
32705,858,843
32710,842,832
32715,830,836
32720,824,828
32725,819,832
32729,799,827
32735,801,822
32740,790,820
32744,783,816
32750,782,815
32755,768,806
32759,759,806
32765,758,801
32770,761,796
32775,756,789
32780,745,787
32785,744,781
32790,744,778
32795,753,763
32800,752,764
32805,750,756
32810,756,755
32815,755,752
32820,759,739
32825,771,732
32830,778,726
32835,780,724
32840,782,713
32845,807,710
32850,810,702
32855,826,693
32860,826,697
32865,842,690
32870,852,688
32875,866,674
32880,878,677
32885,885,676
32890,901,667
32895,925,669
32900,933,666
32905,946,663
32910,959,661
32915,977,660
32920,990,656
32925,1004,652
32930,1022,657
32935,1032,653
32940,1043,659
32945,1059,658
32950,1065,658
32955,1085,666
32960,1092,665
32965,1106,671
32970,1110,668
32975,1119,681
32980,1132,684
32985,1139,689
32990,1150,695
32995,1151,701
33000,1164,707
33005,1166,715
33010,1175,721
33015,1171,726
33020,1179,738
33025,1181,744
33030,1183,754
33035,1190,753
33040,1197,764
33045,1185,775
33050,1184,785
33055,1195,791
33060,1176,805
33065,1188,806
33070,1178,815
33075,1172,825
33080,1181,831
33085,1179,840
33090,1176,843
33095,1170,852
33100,1169,858
33105,1161,861
33110,1160,871
33115,1153,870
33120,1158,880
33125,1154,887
33130,1137,879
33135,1131,890
33140,1141,898
33145,1133,899
33150,1134,899
33155,1124,907
33160,1119,904
33165,1115,907
33170,1111,908
33175,1116,909
33180,1105,908
33185,1107,901
33190,1095,901
33195,1096,905
33200,1095,902
33205,1090,905
33210,1089,901
33215,1086,898
33220,1087,894
33225,1084,898
33230,1079,897
33235,1075,889
33240,1087,895
33245,1072,888
33250,1065,890
33255,1078,881
33260,1058,881
33265,1064,882
33270,1062,876
33275,1056,873
33280,1033,873
33285,1046,871
33290,1036,871
33295,1022,868
33300,1019,867
33305,1013,865
33310,1012,864
33315,999,861
33320,988,859
33325,983,855
33330,969,862
33335,964,850
33340,952,853
33345,952,855
33350,941,848
33355,924,844
33360,916,844
33365,910,847
33370,892,842
33375,898,838
33380,875,850
33385,863,839
33390,856,834
33395,848,834
33400,840,831
33405,837,831
33410,813,825
33415,810,826
33420,799,827
33425,791,818
33430,783,816
33435,773,814
33440,780,805
33445,763,809
33450,769,800
33455,764,796
33460,757,793
33465,755,786
33470,743,778
33475,749,773
33480,733,771
33485,751,757
33490,745,754
33495,752,756
33500,772,745
33505,766,742
33510,771,735
33515,768,732
33520,770,724
33525,791,723
33530,793,716
33535,802,707
33540,825,695
33545,824,698
33550,836,691
33555,854,685
33560,867,681
33565,878,681
33570,884,676
33575,905,671
33580,922,671
33585,938,665
33590,940,660
33595,970,662
33600,968,660
33605,983,655
33610,1003,658
33615,1006,652
33620,1023,654
33625,1033,662
33630,1057,663
33635,1070,658
33640,1074,669
33645,1084,667
33650,1103,672
33655,1110,674
33660,1122,674
33665,1131,684
33670,1131,689
33675,1149,692
33680,1148,697
33685,1157,704
33690,1158,719
33695,1166,720
33700,1180,726
33705,1180,738
33710,1189,748
33715,1188,751
33720,1189,758
33725,1184,767
33730,1181,776
33735,1195,787
33740,1194,793
33745,1182,796
33750,1187,807
33755,1183,813
33760,1187,821
33765,1178,829
33770,1183,837
33775,1168,841
33780,1162,850
33785,1166,859
33790,1163,857
33795,1159,865
33800,1154,874
33805,1153,877
33810,1146,885
33815,1150,887
33820,1148,891
33825,1132,897
33830,1130,896
33835,1121,896
33840,1127,900
33845,1111,899
33850,1127,900
33855,1111,910
33860,1109,908
33865,1113,907
33870,1103,906
33875,1102,907
33880,1088,908
33885,1096,900
33890,1095,904
33895,1090,902
33900,1096,902
33905,1095,899
33910,1086,895
33915,1078,892
33920,1082,901
33925,1083,890
33930,1071,887
33935,1074,888
33940,1066,886
33945,1065,885
33950,1063,884
33955,1057,880
33960,1041,874
33965,1045,873
33970,1033,878
33975,1036,869
33980,1035,868
33985,1024,866
33990,1023,869
33995,1009,868
34000,1004,860
34005,1002,859
34010,984,858
34015,973,852
34020,973,861
34025,952,854
34030,957,853
34035,940,850
34040,936,851
34045,921,850
34050,917,848
34055,914,848
34060,895,839
34065,882,849
34070,868,835
34075,858,837
34080,852,832
34085,839,835
34090,831,831
34095,829,830
34100,808,826
34105,801,822
34110,794,820
34115,782,816
34120,772,803
34125,779,809
34130,763,801
34135,764,802
34140,764,795
34145,752,787
34150,748,787
34155,756,783
34160,744,778
34165,744,766
34170,749,770
34175,754,761
34180,753,751
34185,756,748
34190,766,741
34195,772,736
34200,776,733
34205,779,725
34210,786,720
34215,793,712
34220,801,708
34225,813,704
34230,827,696
34235,832,695
34240,844,687
34245,868,686
34250,877,675
34255,887,671
34260,904,665
34265,914,663
34270,919,662
34275,939,665
34280,964,660
34285,962,660
34290,974,660
34295,998,660
34300,1002,660
34305,1025,656
34310,1034,659
34315,1050,659
34320,1062,661
34325,1070,660
34330,1080,660
34335,1097,671
34340,1102,672
34345,1117,679
34350,1131,680
34355,1130,687
34360,1140,699
34365,1148,700
34370,1157,704
34375,1160,713
34380,1176,720
34385,1169,726
34390,1173,737
34395,1186,745
34400,1191,750
34405,1192,761
34410,1190,766
34415,1191,776
34420,1178,779
34425,1189,789
34430,1196,795
34435,1183,800
34440,1182,811
34445,1174,821
34450,1179,828
34455,1178,838
34460,1177,839
34465,1176,844
34470,1167,853
34475,1161,863
34480,1164,867
34485,1155,876
34490,1153,878
34495,1148,884
34500,1150,893
34505,1142,890
34510,1146,890
34515,1129,898
34520,1125,899
34525,1131,904
34530,1130,898
34535,1122,906
34540,1118,909
34545,1106,904
34550,1113,906
34555,1105,907
34560,1107,912
34565,1099,902
34570,1092,907
34575,1090,909
34580,1099,905
34585,1092,903
34590,1082,896
34595,1090,895
34600,1086,895
34605,1091,891
34610,1086,895
34615,1080,887
34620,1076,889
34625,1065,887
34630,1063,885
34635,1064,884
34640,1064,877
34645,1052,874
34650,1049,876
34655,1050,874
34660,1035,869
34665,1033,868
34670,1025,864
34675,1017,868
34680,1013,865
34685,1009,865
34690,999,862
34695,988,856
34700,986,859
34705,974,856
34710,966,854
34715,949,851
34720,944,853
34725,939,847
34730,921,848
34735,920,853
34740,892,846
34745,897,843
34750,873,839
34755,859,845
34760,866,841
34765,855,838
34770,847,835
34775,834,833
34780,821,828
34785,809,828
34790,810,821
34795,797,820
34800,784,818
34805,781,815
34810,771,811
34815,758,808
34820,758,801
34825,762,795
34830,747,797
34835,750,789
34840,747,785
34845,760,781
34850,744,769
34855,751,768
34860,751,763
34865,751,755
34870,756,747
34875,757,741
34880,776,736
34885,765,726
34890,778,728
34895,778,718
34900,805,711
34905,804,709
34910,802,707
34915,821,694
34920,835,695
34925,848,688
34930,848,683
34935,865,680
34940,875,676
34945,887,674
34950,909,667
34955,918,665
34960,939,668
34965,943,656
34970,959,664
34975,975,659
34980,1000,657
34985,1002,659
34990,1011,651
34995,1037,663
35000,1040,658
35005,1050,658
35010,1074,661
35015,1082,662
35020,1095,667
35025,1104,668
35030,1122,678
35035,1126,681
35040,1138,685
35045,1143,692
35050,1144,700
35055,1157,703
35060,1161,713
35065,1167,721
35070,1173,725
35075,1180,731
35080,1180,733
35085,1181,748
35090,1186,755
35095,1192,760
35100,1187,771
35105,1189,775
35110,1194,786
35115,1184,791
35120,1192,803
35125,1191,813
35130,1181,819
35135,1172,823
35140,1166,834
35145,1173,840
35150,1170,845
35155,1165,843
35160,1165,860
35165,1166,867
35170,1153,872
35175,1162,875
35180,1151,880
35185,1147,878
35190,1138,894
35195,1141,897
35200,1135,895
35205,1124,901
35210,1131,903
35215,1121,904
35220,1114,906
35225,1112,900
35230,1114,907
35235,1105,905
35240,1109,903
35245,1118,902
35250,1110,908
35255,1106,903
35260,1095,907
35265,1094,906
35270,1097,902
35275,1084,899
35280,1092,902
35285,1099,894
35290,1086,891
35295,1068,891
35300,1080,895
35305,1068,895
35310,1072,890
35315,1058,886
35320,1069,884
35325,1060,878
35330,1055,880
35335,1054,876
35340,1039,875
35345,1043,877
35350,1027,871
35355,1028,861
35360,1026,868
35365,1012,865
35370,1006,869
35375,993,861
35380,987,860
35385,980,857
35390,976,858
35395,960,857
35400,956,849
35405,939,850
35410,936,850
35415,926,844
35420,915,852
35425,900,847
35430,893,846
35435,883,840
35440,878,844
35445,865,837
35450,860,841
35455,854,835
35460,828,831
35465,820,833
35470,816,824
35475,805,827
35480,801,823
35485,792,818
35490,785,815
35495,769,816
35500,762,808
35505,766,803
35510,760,799
35515,749,796
35520,750,785
35525,752,786
35530,745,778
35535,742,769
35540,740,773
35545,750,765
35550,744,760
35555,751,751
35560,750,743
35565,765,745
35570,763,732
35575,778,729
35580,781,728
35585,776,715
35590,795,709
35595,809,705
35600,824,702
35605,830,691
35610,837,692
35615,847,687
35620,862,684
35625,879,678
35630,889,673
35635,900,669
35640,915,666
35645,935,664
35650,952,664
35655,960,655
35660,967,660
35665,997,657
35670,997,659
35675,1021,659
35680,1029,656
35685,1049,658
35690,1057,661
35695,1065,658
35700,1078,671
35705,1085,667
35710,1108,673
35715,1113,673
35720,1124,677
35725,1134,684
35730,1135,695
35735,1149,688
35740,1158,703
35745,1160,711
35750,1161,718
35755,1176,724
35760,1180,731
35765,1182,742
35770,1177,752
35775,1186,748
35780,1185,764
35785,1190,769
35790,1192,779
35795,1188,783
35800,1186,796
35805,1182,804
35810,1185,811
35815,1176,814
35820,1184,826
35825,1177,830
35830,1181,838
35835,1169,844
35840,1167,852
35845,1164,864
35850,1162,860
35855,1162,869
35860,1152,872
35865,1153,881
35870,1140,888
35875,1143,882
35880,1134,890
35885,1134,895
35890,1128,892
35895,1128,902
35900,1125,904
35905,1124,899
35910,1115,898
35915,1113,906
35920,1110,910
35925,1120,909
35930,1098,908
35935,1107,909
35940,1105,906
35945,1094,908
35950,1101,902
35955,1098,906
35960,1095,904
35965,1084,900
35970,1082,894
35975,1089,892
35980,1075,893
35985,1071,891
35990,1077,891
35995,1073,888
36000,1062,886
36005,1056,884
36010,1063,879
36015,1049,882
36020,1049,875
36025,1047,872
36030,1031,870
36035,1031,865
36040,1036,873
36045,1018,867
36050,1012,866
36055,1014,865
36060,1002,860
36065,990,849
36070,989,859
36075,971,859
36080,969,852
36085,952,853
36090,944,855
36095,931,853
36100,929,854
36105,923,849
36110,904,848
36115,898,846
36120,885,848
36125,879,842
36130,875,842
36135,853,841
36140,851,837
36145,833,838
36150,813,835
36155,826,834
36160,809,828
36165,809,818
36170,802,825
36175,784,817
36180,772,813
36185,768,810
36190,763,805
36195,763,800
36200,769,803
36205,752,793
36210,749,785
36215,739,779
36220,755,774
36225,749,768
36230,752,765
36235,753,765
36240,758,757
36245,760,753
36250,762,750
36255,768,735
36260,776,735
36265,771,725
36270,782,712
36275,788,711
36280,798,710
36285,823,700
36290,824,698
36295,843,691
36300,840,690
36305,860,676
36310,871,673
36315,888,668
36320,889,671
36325,909,669
36330,934,664
36335,944,659
36340,957,658
36345,969,655
36350,985,653
36355,1008,654
36360,1021,656
36365,1026,654
36370,1039,658
36375,1054,661
36380,1062,667
36385,1079,666
36390,1083,662
36395,1098,669
36400,1111,675
36405,1118,674
36410,1125,683
36415,1127,689
36420,1150,696
36425,1153,705
36430,1154,708
36435,1159,709
36440,1177,721
36445,1178,726
36450,1174,738
36455,1178,742
36460,1190,753
36465,1178,761
36470,1187,766
36475,1184,774
36480,1186,783
36485,1187,795
36490,1190,796
36495,1189,802
36500,1184,810
36505,1185,826
36510,1175,832
36515,1175,839
36520,1168,842
36525,1179,847
36530,1166,857
36535,1163,866
36540,1161,868
36545,1166,874
36550,1157,880
36555,1143,879
36560,1140,883
36565,1140,888
36570,1139,893
36575,1140,895
36580,1134,895
36585,1127,902
36590,1122,902
36595,1110,907
36600,1120,909
36605,1116,906
36610,1111,906
36615,1108,906
36620,1113,908
36625,1094,908
36630,1098,905
36635,1097,909
36640,1088,900
36645,1087,902
36650,1084,900
36655,1082,903
36660,1079,894
36665,1075,889
36670,1093,891
36675,1076,888
36680,1077,887
36685,1064,890
36690,1069,879
36695,1063,880
36700,1060,881
36705,1052,879
36710,1047,874
36715,1033,872
36720,1038,872
36725,1037,876
36730,1031,868
36735,1021,865
36740,1011,861
36745,1003,858
36750,992,856
36755,986,861
36760,985,859
36765,963,852
36770,953,860
36775,944,848
36780,930,847
36785,929,847
36790,922,853
36795,907,850
36800,905,839
36805,897,844
36810,880,846
36815,867,839
36820,860,836
36825,849,831
36830,841,842
36835,828,832
36840,812,830
36845,806,823
36850,799,825
36855,789,818
36860,791,816
36865,771,816
36870,779,809
36875,768,807
36880,769,796
36885,747,796
36890,757,794
36895,749,788
36900,749,783
36905,743,777
36910,742,770
36915,749,765
36920,744,762
36925,752,758
36930,762,742
36935,760,738
36940,770,732
36945,772,731
36950,778,726
36955,789,716
36960,787,707
36965,804,705
36970,810,697
36975,819,697
36980,843,690
36985,844,689
36990,861,688
36995,872,679
