timestamp_ms,ir_finger,ir_toe
0,1042,722
5,1054,724
10,1063,723
15,1071,717
20,1079,721
25,1091,713
30,1107,709
35,1107,706
40,1117,711
45,1125,707
50,1144,710
55,1149,705
60,1158,709
65,1158,706
70,1157,710
75,1161,709
80,1165,708
85,1179,711
90,1175,711
95,1194,714
100,1175,719
105,1186,721
110,1188,729
115,1183,723
120,1187,729
125,1187,735
130,1189,736
135,1182,736
140,1180,741
145,1187,745
150,1187,748
155,1180,758
160,1187,759
165,1178,758
170,1169,763
175,1160,773
180,1167,774
185,1173,778
190,1166,785
195,1158,789
200,1165,789
205,1145,798
210,1148,800
215,1145,802
220,1137,812
225,1145,814
230,1134,813
235,1139,825
240,1124,825
245,1127,824
250,1135,833
255,1124,836
260,1108,841
265,1105,843
270,1104,840
275,1116,842
280,1110,846
285,1108,855
290,1104,860
295,1088,853
300,1100,859
305,1090,858
310,1094,856
315,1087,865
320,1094,866
325,1087,866
330,1085,868
335,1081,870
340,1081,867
345,1078,867
350,1071,873
355,1075,866
360,1066,867
365,1064,869
370,1064,862
375,1055,861
380,1054,867
385,1057,861
390,1050,863
395,1038,861
400,1043,864
405,1028,857
410,1033,861
415,1033,861
420,1023,859
425,1005,854
430,993,852
435,996,857
440,989,853
445,984,853
450,968,846
455,971,847
460,957,848
465,942,848
470,946,847
475,925,850
480,934,843
485,926,840
490,910,843
495,890,841
500,889,837
505,883,838
510,871,840
515,856,838
520,859,838
525,853,835
530,837,838
535,834,836
540,826,832
545,815,837
550,804,827
555,803,834
560,796,829
565,779,830
570,765,823
575,773,825
580,770,825
585,762,819
590,749,820
595,764,826
600,750,817
605,752,820
610,750,822
615,739,819
620,746,815
625,753,819
630,743,817
635,740,812
640,748,811
645,760,809
650,756,804
655,767,806
660,765,797
665,770,797
670,779,790
675,794,795
680,794,790
685,803,785
690,816,783
695,815,785
700,820,771
705,840,778
710,850,770
715,857,771
720,873,761
725,872,763
730,888,758
735,903,754
740,913,755
745,931,748
750,937,747
755,955,746
760,967,743
765,981,735
770,993,734
775,1007,731
780,1026,725
785,1023,728
790,1035,723
795,1042,723
800,1060,716
805,1060,722
810,1081,710
815,1094,714
820,1104,711
825,1109,711
830,1108,709
835,1123,713
840,1136,708
845,1130,709
850,1148,707
855,1160,717
860,1159,711
865,1162,714
870,1172,715
875,1183,712
880,1176,713
885,1178,718
890,1187,718
895,1193,720
900,1183,721
905,1192,727
910,1191,734
915,1191,729
920,1183,733
925,1191,737
930,1191,735
935,1182,741
940,1185,745
945,1183,751
950,1181,759
955,1178,755
960,1165,756
965,1175,769
970,1165,771
975,1170,775
980,1158,777
985,1175,788
990,1156,793
995,1162,795
1000,1156,805
1004,1137,805
1010,1145,813
1014,1143,814
1020,1132,816
1025,1137,819
1030,1135,817
1035,1127,833
1040,1120,824
1045,1124,832
1050,1118,836
1055,1115,846
1060,1114,841
1065,1113,845
1070,1101,851
1075,1112,850
1080,1102,850
1085,1101,856
1090,1100,857
1095,1102,858
1100,1095,860
1105,1099,857
1110,1084,860
1115,1085,867
1120,1094,866
1125,1084,861
1130,1088,872
1135,1082,861
1140,1081,863
1145,1075,867
1150,1076,871
1155,1059,862
1160,1061,866
1165,1059,867
1170,1057,861
1175,1059,863
1180,1045,862
1185,1042,864
1190,1050,864
1195,1034,861
1200,1032,852
1205,1018,856
1210,1019,855
1215,1017,857
1220,1009,858
1225,999,858
1230,983,856
1235,988,854
1240,984,848
1245,971,850
1250,970,853
1255,958,845
1260,955,846
1265,944,842
1270,930,846
1275,920,840
1280,910,846
1285,902,845
1290,892,839
1295,886,843
1300,887,845
1305,868,831
1310,866,834
1315,850,837
1320,845,828
1325,831,836
1330,823,836
1335,816,835
1340,813,832
1345,811,828
1350,801,828
1355,781,827
1360,787,832
1365,774,831
1370,780,825
1375,774,821
1380,758,820
1385,761,826
1390,747,820
1395,757,825
1400,755,818
1405,746,821
1410,740,819
1415,752,820
1420,747,816
1425,750,809
1430,755,810
1435,756,807
1440,761,812
1445,758,803
1450,764,803
1455,764,798
1460,776,795
1465,777,788
1470,790,798
1475,801,786
1480,803,791
1485,815,784
1490,821,779
1495,836,776
1500,849,771
1505,857,770
1510,866,764
1515,879,765
1520,890,758
1525,896,759
1530,915,755
1535,928,750
1540,937,757
1545,941,745
1550,960,744
1555,967,745
1560,989,733
1565,991,728
1570,1009,726
1575,1027,728
1580,1029,728
1585,1042,725
1590,1063,727
1595,1059,721
1600,1077,715
1605,1092,715
1610,1095,715
1615,1106,711
1620,1117,710
1625,1113,708
1630,1126,709
1635,1137,711
1640,1148,713
1645,1149,713
1650,1156,707
1655,1157,710
1660,1165,713
1665,1170,706
1670,1183,712
1675,1177,713
1680,1180,715
1685,1179,716
1690,1176,724
1695,1181,723
1700,1188,728
1705,1194,734
1710,1182,731
1715,1183,735
1720,1190,739
1725,1190,743
1730,1195,746
1735,1179,751
1740,1179,753
1745,1178,754
1750,1185,762
1755,1177,767
1760,1173,766
1765,1169,774
1770,1174,783
1775,1163,784
1780,1159,787
1785,1154,787
1790,1146,796
1795,1134,793
1800,1143,801
1805,1143,810
1810,1139,810
1815,1137,818
1820,1137,813
1825,1130,825
1830,1123,829
1835,1118,831
1840,1117,837
1845,1122,836
1850,1116,842
1855,1112,845
1860,1113,848
1865,1117,851
1870,1108,852
1875,1109,861
1880,1101,857
1885,1096,855
1890,1101,859
1895,1091,865
1900,1088,867
1905,1100,864
1910,1090,864
1915,1093,867
1920,1085,858
1925,1077,869
1930,1074,863
1935,1071,868
1940,1058,866
1945,1066,867
1950,1071,865
1955,1063,866
1960,1063,866
1965,1056,862
1970,1051,860
1975,1047,859
1980,1050,862
1985,1036,863
1990,1035,862
1995,1029,860
2000,1020,859
2005,1018,854
2009,1011,853
2015,1004,859
2020,1001,854
2025,979,851
2029,988,851
2035,981,848
2040,973,848
2045,964,843
2050,952,845
2055,949,844
2060,942,847
2065,933,841
2070,912,843
2075,915,838
2080,892,841
2085,894,844
2090,880,839
2095,872,836
2100,870,835
2105,862,832
2110,845,835
2115,848,838
2120,831,830
2125,832,832
2130,816,826
2135,810,831
2140,799,835
2145,795,836
2150,781,829
2155,776,825
2160,769,828
2165,778,825
2170,770,825
2175,757,822
2180,754,826
2185,760,823
2190,749,819
2195,752,816
2200,743,816
2205,751,824
2210,745,814
2215,747,810
2220,755,812
2225,765,810
2230,757,808
2235,756,804
2240,760,807
2245,776,800
2250,779,796
2255,777,793
2260,788,797
2265,804,790
2270,802,786
2275,818,787
2280,812,787
2285,827,781
2290,840,780
2295,848,770
2300,865,769
2305,873,767
2310,883,758
2315,898,759
2320,900,759
2325,925,749
2330,922,749
2335,943,747
2340,957,747
2345,973,741
2350,978,737
2355,993,737
2360,1011,734
2365,1014,726
2370,1033,722
2375,1045,727
2380,1049,722
2385,1063,721
2390,1066,719
2395,1077,720
2400,1085,714
2405,1094,716
2410,1109,708
2415,1117,710
2420,1119,707
2425,1139,709
2430,1134,706
2435,1153,710
2440,1147,710
2445,1158,714
2450,1157,709
2455,1165,712
2460,1177,714
2465,1169,716
2470,1194,715
2475,1189,715
2480,1191,724
2485,1182,725
2490,1197,727
2495,1187,727
2500,1197,735
2505,1181,736
2510,1189,735
2515,1183,742
2520,1183,741
2525,1187,747
2530,1181,752
2535,1176,747
2540,1179,760
2545,1178,762
2550,1177,769
2555,1173,773
2560,1163,773
2565,1163,782
2570,1161,784
2575,1161,789
2580,1157,791
2585,1150,792
2590,1154,799
2595,1142,801
2600,1140,815
2605,1134,816
2610,1141,818
2615,1128,823
2620,1121,826
2625,1120,832
2630,1126,828
2635,1116,836
2640,1110,838
2645,1117,846
2650,1104,844
2655,1105,847
2660,1108,850
2665,1103,847
2670,1104,852
2675,1091,855
2680,1112,860
2685,1091,857
2690,1093,859
2695,1080,865
2700,1093,864
2705,1076,864
2710,1086,868
2715,1082,868
2720,1079,867
2725,1083,867
2730,1079,872
2735,1066,870
2740,1067,859
2745,1068,868
2750,1066,861
2755,1063,866
2760,1053,864
2765,1052,860
2770,1038,863
2775,1038,859
2780,1040,858
2785,1031,857
2790,1031,858
2795,1028,858
2800,1017,859
2805,1009,853
2810,994,850
2815,995,852
2820,997,848
2825,981,850
2830,976,854
2835,964,849
2840,955,843
2845,951,844
2850,937,847
2855,928,846
2860,931,844
2865,906,842
2870,904,842
2875,892,836
2880,891,839
2885,886,837
2890,872,833
2895,865,837
2900,849,835
2905,844,842
2910,832,832
2915,830,832
2920,829,826
2925,802,831
2930,805,829
2935,803,829
2940,789,829
2945,784,826
2950,777,830
2955,776,833
2960,762,823
2965,757,828
2970,753,829
2975,755,823
2980,758,827
2985,747,822
2990,749,817
2995,750,813
3000,746,812
3005,749,812
3010,754,812
3015,753,816
3020,745,802
3025,754,809
3030,762,804
3035,771,804
3040,780,802
3045,773,795
3050,786,795
3055,797,791
3060,791,794
3065,810,793
3070,814,784
3075,813,782
3080,840,779
3085,839,778
3090,845,772
3095,869,767
3100,867,766
3105,878,767
3110,904,761
3115,914,756
3120,927,755
3125,939,751
3130,945,744
3135,952,743
3140,960,740
3145,983,743
3150,991,736
3155,1021,728
3160,1027,725
3165,1033,725
3170,1034,725
3175,1044,726
3180,1063,721
3185,1080,719
3190,1095,717
3195,1100,714
3200,1110,714
3205,1112,708
3210,1118,712
3215,1119,706
3220,1131,708
3225,1145,706
3230,1144,711
3235,1158,707
3240,1170,711
3245,1170,713
3250,1172,706
3255,1167,713
3260,1176,718
3265,1176,719
3270,1176,717
3275,1181,720
3280,1190,728
3285,1184,717
3290,1189,729
3295,1180,732
3300,1185,734
3305,1180,740
3310,1187,743
3315,1186,738
3320,1186,748
3325,1186,746
3330,1174,754
3335,1168,756
3340,1162,762
3345,1169,773
3350,1167,776
3355,1161,780
3360,1164,786
3365,1155,785
3370,1155,795
3375,1151,792
3380,1147,804
3385,1141,804
3390,1157,803
3395,1138,810
3400,1136,817
3405,1127,821
3410,1132,820
3415,1130,829
3420,1120,833
3425,1124,832
3430,1111,832
3435,1120,841
3440,1108,839
3445,1108,852
3450,1108,849
3455,1106,852
3460,1104,850
3465,1104,853
3470,1091,857
3475,1109,860
3480,1089,855
3485,1091,862
3490,1077,863
3495,1084,862
3500,1094,868
3505,1084,868
3510,1082,867
3515,1075,865
3520,1075,862
3525,1068,868
3530,1076,872
3535,1074,869
3540,1066,864
3545,1061,862
3550,1048,866
3555,1049,868
3560,1045,862
3565,1037,865
3570,1037,859
3575,1037,860
3580,1031,863
3585,1030,853
3590,1019,851
3595,1017,851
3600,1009,852
3605,996,857
3610,983,850
3615,985,849
3620,978,848
3625,968,848
3630,960,846
3635,959,846
3640,950,844
3645,939,845
3650,930,844
3655,924,844
3660,912,842
3665,911,841
3670,890,838
3675,884,837
3680,871,837
3685,871,834
3690,851,833
3695,847,833
3700,838,834
3705,833,837
3710,830,829
3715,812,830
3720,813,834
3725,801,829
3730,788,829
3735,791,826
3740,774,828
3745,777,826
3750,764,829
3755,766,826
3760,761,822
3765,751,821
3770,751,819
3775,763,821
3780,753,823
3785,751,820
3790,751,816
3795,758,814
3800,749,817
3805,749,813
3810,757,810
3815,754,808
3820,759,807
3825,761,802
3830,772,799
3835,765,802
3840,782,797
3845,783,793
3850,791,797
3855,797,787
3860,809,780
3865,819,775
3870,830,786
3875,840,774
3880,841,771
3885,863,770
3890,873,768
3895,882,767
3900,890,755
3905,907,758
3910,913,754
3915,925,754
3920,935,751
3925,949,743
3930,961,740
3935,971,738
3940,986,735
3945,995,732
3950,1010,730
3955,1021,725
3960,1031,726
3965,1034,721
3970,1060,714
3975,1065,719
3980,1075,717
3985,1087,718
3990,1095,715
3995,1107,708
4000,1119,711
4005,1119,709
4010,1138,709
4014,1137,713
4019,1145,709
4025,1159,709
4030,1155,707
4035,1159,712
4040,1162,714
4045,1173,714
4050,1176,717
4054,1179,714
4059,1171,714
4065,1177,722
4070,1189,721
4075,1187,721
4080,1187,724
4085,1183,730
4090,1191,730
4094,1190,735
4100,1180,743
4105,1179,741
4110,1187,749
4115,1186,750
4120,1184,755
4125,1178,758
4130,1172,764
4135,1164,768
4140,1171,772
4145,1170,779
4150,1163,778
4155,1162,790
4160,1152,788
4165,1157,795
4170,1157,802
4175,1145,801
4180,1147,808
4185,1133,811
4190,1142,811
4195,1124,822
4200,1134,819
4205,1126,823
4210,1136,826
4215,1122,833
4220,1114,835
4225,1103,840
4230,1105,845
4235,1111,847
4240,1111,848
4245,1103,853
4250,1104,853
4255,1105,854
4260,1098,851
4265,1097,857
4270,1090,859
4275,1092,866
4280,1088,865
4285,1091,863
4290,1084,866
4295,1082,864
4300,1079,862
4305,1083,863
4310,1074,867
4315,1072,867
4320,1064,865
4325,1064,866
4330,1060,864
4335,1057,865
4340,1058,863
4345,1053,865
4350,1050,866
4355,1054,862
4360,1038,856
4365,1037,859
4370,1029,866
4375,1029,860
4380,1015,860
4385,1024,856
4390,1011,860
4395,991,854
4400,993,857
4405,993,854
4410,982,853
4415,975,846
4420,972,848
4425,956,846
4430,951,844
4435,931,846
4440,928,841
4445,924,844
4450,912,846
4455,910,839
4460,908,840
4465,889,839
4470,878,838
4475,880,836
4480,856,833
4485,854,830
4490,846,836
4495,840,835
4500,829,832
4505,823,832
4510,814,827
4515,801,831
4520,797,832
4525,792,830
4530,785,827
4535,770,834
4540,773,828
4545,767,831
4550,765,819
4555,758,823
4560,757,825
4565,757,820
4570,740,818
4575,758,822
4580,751,816
4585,742,814
4590,740,820
4595,744,809
4600,741,812
4605,750,812
4610,748,805
4615,761,804
4620,768,802
4625,769,801
4630,774,802
4635,783,791
4640,795,796
4645,789,793
4650,808,785
4655,821,782
4660,823,780
4665,835,777
4670,846,773
4675,850,767
4680,861,768
4685,881,770
4690,883,760
4695,902,757
4700,909,754
4705,918,752
4710,934,742
4715,948,750
4720,965,740
4725,984,741
4730,978,741
4735,1004,732
4740,1006,730
4745,1021,718
4750,1036,730
4755,1039,728
4760,1051,727
4765,1055,716
4770,1066,722
4775,1083,711
4780,1098,714
4785,1103,712
4790,1110,714
4795,1116,714
4800,1132,705
4805,1140,709
4810,1147,715
4815,1148,711
4820,1156,712
4825,1162,709
4830,1170,710
4835,1165,709
4840,1177,712
4845,1176,719
4850,1180,720
4855,1186,720
4860,1186,722
4865,1185,720
4870,1182,728
4875,1174,729
4880,1185,732
4885,1186,734
4890,1183,739
4895,1184,741
4900,1178,742
4905,1183,751
4910,1187,756
4915,1175,758
4920,1180,763
4925,1177,769
4930,1172,768
4935,1172,771
4940,1164,784
4945,1164,779
4950,1159,785
4955,1162,789
4960,1150,794
4965,1147,802
4970,1144,799
4975,1143,807
4980,1130,811
4985,1147,811
4990,1128,816
4995,1130,827
5000,1120,825
5005,1125,834
5010,1129,840
5015,1125,843
5020,1107,840
5025,1116,846
5030,1110,843
5035,1110,850
5040,1098,855
5045,1102,859
5050,1098,848
5055,1095,856
5060,1101,863
5065,1083,861
5070,1087,860
5075,1084,865
5080,1083,868
5085,1076,862
5090,1080,863
5095,1072,868
5100,1078,867
5105,1075,869
5110,1066,864
5115,1070,867
5120,1069,870
5125,1060,870
5130,1052,865
5135,1062,865
5140,1056,867
5145,1050,863
5150,1037,864
5155,1037,862
5160,1036,865
5165,1028,853
5170,1033,854
5175,1012,863
5180,1012,858
5185,1011,851
5190,991,856
5195,994,851
5200,983,851
5205,977,845
5210,956,849
5215,964,847
5220,950,850
5225,938,847
5230,934,844
5235,925,841
5240,914,838
5245,923,842
5250,909,839
5255,893,836
5260,878,842
5265,877,838
5270,863,838
5275,852,835
5280,848,840
5285,839,828
5290,835,834
5295,826,830
5300,818,837
5305,824,826
5310,807,829
5315,789,824
5320,784,832
5325,785,831
5330,775,826
5335,766,825
5340,762,829
5345,760,821
5350,755,822
5355,750,821
5360,748,825
5365,748,820
5370,753,818
5375,749,815
5380,741,818
5385,750,814
5390,751,812
5395,755,809
5400,753,813
5405,761,801
5410,765,804
5415,772,796
5420,773,805
5425,778,796
5430,787,792
5435,796,791
5440,809,791
5445,814,789
5450,817,783
5455,824,786
5460,842,780
5465,846,769
5470,855,765
5475,863,762
5480,881,766
5485,888,762
5490,897,757
5495,908,751
5500,930,748
5505,939,747
5510,960,745
5515,963,739
5520,974,734
5525,988,734
5530,1004,728
5535,1014,729
5540,1030,732
5545,1033,726
5550,1047,725
5555,1059,716
5560,1068,717
5565,1079,715
5570,1079,713
5575,1097,713
5580,1102,711
5585,1115,718
5590,1121,712
5595,1137,716
5600,1131,708
5605,1146,707
5610,1144,709
5615,1158,704
5620,1168,708
5625,1172,710
5630,1177,716
5635,1185,715
5640,1177,713
5645,1175,714
5650,1186,716
5655,1182,722
5660,1190,722
5665,1185,722
5670,1182,730
5675,1185,734
5680,1182,736
5685,1191,739
5690,1187,737
5695,1187,747
5700,1188,751
5705,1186,753
5710,1176,757
5715,1172,758
5720,1169,766
5725,1173,774
5730,1168,779
5735,1159,778
5740,1156,788
5745,1165,786
5750,1156,791
5755,1153,799
5760,1145,806
5765,1147,807
5770,1142,812
5775,1135,815
5780,1131,816
5785,1127,825
5790,1131,821
5795,1118,833
5800,1128,838
5805,1122,835
5810,1125,842
5815,1120,844
5820,1112,841
5825,1109,847
5830,1117,846
5835,1101,855
5840,1104,855
5845,1096,854
5850,1096,854
5855,1090,864
5860,1089,859
5865,1081,866
5870,1086,864
5875,1077,867
5880,1092,864
5885,1088,871
5890,1080,864
5895,1079,868
5900,1073,864
5905,1079,872
5910,1067,864
5915,1074,870
5920,1067,864
5925,1053,865
5930,1052,859
5935,1050,867
5940,1049,869
5945,1038,857
5950,1031,859
5955,1034,859
5960,1030,860
5965,1018,857
5970,1027,855
5975,998,854
5980,1001,852
5985,993,854
5990,999,855
5995,988,853
6000,968,848
6005,962,848
6010,962,845
6015,948,846
6020,950,847
6025,936,843
6030,924,843
6035,907,844
6040,907,842
6045,902,839
6050,893,839
6055,878,837
6060,868,837
6065,876,831
6070,847,840
6075,846,835
6080,831,830
6085,824,835
6090,818,838
6095,818,834
6100,801,829
6105,786,831
6110,787,829
6115,776,830
6120,775,827
6125,771,826
6130,760,823
6135,752,822
6140,747,824
6145,762,825
6150,755,827
6155,747,815
6160,747,820
6165,742,815
6170,748,813
6175,742,821
6180,750,816
6185,752,808
6190,745,809
6195,754,810
6200,763,802
6205,761,805
6210,762,801
6215,770,800
6220,788,798
6225,789,787
6230,794,791
6235,799,786
6240,813,783
6245,826,781
6250,839,770
6255,847,776
6260,857,774
6265,864,770
6270,872,763
6275,878,763
6280,896,760
6285,906,756
6290,923,752
6295,930,755
6300,954,747
6305,955,743
6310,974,742
6315,983,738
6320,987,731
6325,1011,730
6330,1012,730
6335,1034,722
6340,1042,728
6345,1052,721
6350,1059,721
6355,1078,714
6360,1092,717
6365,1096,714
6370,1095,714
6375,1110,710
6380,1116,704
6385,1125,712
6390,1142,709
6395,1139,709
6400,1143,706
6405,1149,707
6410,1163,709
6415,1165,707
6420,1172,712
6425,1177,716
6430,1182,714
6435,1182,715
6440,1185,721
6445,1186,723
6450,1184,725
6455,1191,724
6460,1190,724
6465,1189,731
6470,1190,735
6475,1193,741
6480,1189,742
6485,1179,746
6490,1172,750
6495,1188,753
6500,1183,756
6505,1172,763
6510,1171,764
6515,1174,768
6520,1168,774
6525,1169,777
6530,1163,784
6535,1154,785
6540,1156,790
6545,1159,800
6550,1144,800
6555,1139,802
6560,1143,808
6565,1146,807
6570,1135,814
6575,1136,828
6580,1138,826
6585,1127,823
6590,1125,832
6595,1113,833
6600,1121,832
6605,1112,843
6610,1111,845
6615,1111,851
6620,1104,852
6625,1101,856
6630,1097,855
6635,1100,856
6640,1105,853
6645,1092,860
6650,1106,863
6655,1094,862
6660,1093,864
6665,1088,864
6670,1080,862
6675,1086,866
6680,1084,867
6685,1079,865
6690,1072,871
6695,1072,866
6700,1076,866
6705,1064,867
6710,1062,870
6715,1071,860
6720,1053,863
6725,1051,864
6730,1036,868
6735,1040,860
6740,1042,857
6745,1031,856
6750,1025,859
6755,1018,855
6760,1021,856
6765,1012,854
6770,1005,857
6775,1000,854
6780,995,855
6785,984,852
6790,977,852
6795,969,849
6800,969,847
6805,952,849
6810,947,847
6815,935,845
6820,923,844
6825,912,844
6830,913,844
6835,898,843
6840,894,843
6845,885,835
6850,874,835
6855,866,835
6860,851,841
6865,850,836
6870,838,828
6875,833,829
6880,822,833
6885,810,827
6890,801,832
6895,801,832
6900,797,833
6905,794,827
6910,790,831
6915,785,828
6920,762,826
6925,766,825
6930,762,825
6935,760,820
6940,753,821
6945,754,817
6950,738,822
6955,746,821
6960,751,820
6965,747,813
6970,746,812
6975,740,812
6980,760,811
6985,761,808
6990,770,804
6995,767,802
7000,760,803
7005,773,796
7010,771,798
7015,785,788
7020,797,793
7025,808,789
7030,812,787
7035,815,782
7040,828,780
7045,839,774
7050,852,771
7055,855,771
7060,852,770
7065,878,761
7070,889,764
7075,902,757
7080,918,757
7085,931,750
7090,932,746
7095,954,738
7100,968,743
7105,976,744
7110,995,731
7115,1005,729
7120,1007,730
7125,1022,725
7130,1034,719
7135,1048,724
7140,1055,720
7145,1060,719
7150,1073,715
7155,1088,720
7160,1100,710
7165,1103,712
7170,1119,707
7175,1122,713
7180,1136,712
7185,1139,714
7190,1149,706
7195,1160,706
7200,1149,713
7205,1161,709
7210,1168,719
7215,1173,714
7220,1172,717
7225,1176,719
7230,1183,717
7235,1192,716
7240,1187,724
7245,1177,725
7250,1188,729
7255,1178,729
7260,1182,732
7265,1183,734
7270,1187,742
7275,1186,741
7280,1185,745
7285,1177,748
7290,1182,754
7295,1171,760
7300,1168,764
7305,1176,767
7310,1171,770
7315,1169,770
7320,1149,773
7325,1163,785
7330,1156,790
7335,1161,797
7340,1163,794
7345,1157,800
7350,1142,805
7355,1133,807
7360,1135,813
7365,1125,816
7370,1140,821
7375,1129,827
7380,1132,824
7385,1119,832
7390,1119,833
7395,1113,838
7400,1111,846
7405,1119,851
7410,1102,849
7415,1107,845
7420,1104,853
7425,1089,861
7430,1106,862
7435,1095,862
7440,1101,865
7445,1086,860
7450,1093,866
7455,1083,866
7460,1081,866
7465,1087,864
7470,1080,872
7475,1085,867
7480,1076,865
7485,1074,865
7490,1063,866
7495,1068,871
7500,1069,868
7505,1071,863
7510,1059,859
7515,1060,859
7520,1043,865
7525,1043,858
7530,1047,860
7535,1037,863
7540,1036,859
7545,1026,857
7550,1030,854
7555,1014,860
7560,1015,856
7565,1014,851
7570,999,849
7575,986,852
7580,978,850
7585,980,847
7590,967,844
7595,960,848
7600,948,849
7605,942,844
7610,936,846
7615,935,843
7620,922,841
7625,913,839
7630,901,842
7635,893,834
7640,871,839
7645,870,842
7650,859,833
7655,855,838
7660,839,833
7665,835,832
7670,821,831
7675,811,834
7680,813,833
7685,811,832
7690,794,826
7695,797,834
7700,782,836
7705,776,831
7710,768,823
7715,765,827
7720,763,821
7725,768,824
7730,756,825
7735,752,826
7740,750,819
7745,751,820
7750,753,816
7755,748,818
7760,746,817
7765,742,810
7770,750,811
7775,753,806
7780,760,812
7785,760,798
7790,765,799
7795,775,801
7800,774,799
7805,783,797
7810,793,789
7815,795,795
7820,807,782
7825,805,779
7830,812,780
7835,828,785
7840,844,776
7845,843,774
7850,869,767
7855,874,768
7860,882,758
7865,884,756
7870,910,757
7875,924,752
7880,930,745
7885,939,743
7890,955,748
7895,967,743
7900,976,737
7905,998,735
7910,1009,729
7915,1023,725
7920,1031,728
7925,1035,722
7930,1060,717
7935,1056,718
7940,1072,717
7945,1089,717
7950,1090,714
7955,1105,713
7960,1114,709
7965,1120,711
7970,1130,712
7975,1131,711
7980,1142,712
7985,1142,715
7990,1156,713
7995,1152,711
8000,1165,707
8005,1176,717
8010,1175,711
8015,1178,715
8020,1179,715
8025,1178,718
8029,1188,724
8035,1191,724
8039,1190,726
8045,1191,729
8050,1186,734
8055,1193,735
8060,1197,739
8064,1193,741
8070,1184,750
8074,1184,744
8080,1181,752
8085,1180,753
8090,1180,759
8095,1172,765
8100,1167,771
8105,1178,767
8109,1169,776
8115,1159,782
8119,1163,785
8125,1154,797
8130,1142,793
8135,1157,797
8140,1151,798
8145,1140,808
8150,1137,814
8154,1132,818
8160,1132,821
8164,1134,823
8170,1132,827
8175,1123,832
8180,1117,838
8185,1121,840
8189,1106,842
8195,1112,844
8200,1109,848
8205,1109,848
8210,1100,854
8215,1103,851
8220,1098,854
8225,1106,862
8230,1090,853
8235,1097,860
8240,1089,858
8245,1089,867
8250,1090,873
8255,1091,863
8260,1085,862
8265,1078,868
8270,1082,866
8275,1073,864
8280,1073,865
8285,1071,864
8290,1065,869
8295,1068,867
8300,1058,860
8305,1060,860
8310,1055,869
8315,1051,863
8320,1046,864
8325,1044,861
8330,1038,865
8335,1022,857
8340,1032,856
8345,1020,858
8350,1021,858
8355,1005,857
8360,1004,851
8365,1004,854
8370,985,854
8375,983,853
8380,968,852
8385,966,852
8390,955,850
8395,950,846
8400,941,839
8405,922,843
8410,921,838
8415,919,842
8420,906,839
8425,902,842
8430,893,839
8435,878,835
8440,876,844
8445,846,841
8450,853,836
8455,843,836
8460,835,835
8465,824,831
8470,809,832
8475,810,830
8480,810,827
8485,801,826
8490,781,831
8495,781,824
8500,773,831
8505,779,829
8510,762,822
8515,767,826
8520,759,823
8525,752,822
8530,757,816
8535,751,816
8540,750,821
8545,746,823
8550,744,816
8555,743,815
8560,749,814
8565,745,809
8570,762,805
8575,758,804
8580,759,804
8585,766,800
8590,774,799
8595,779,788
8600,790,792
8605,791,789
8610,801,789
8615,804,785
8620,822,784
8625,835,780
8630,835,779
8635,850,777
8640,857,770
8645,852,769
8650,877,764
8655,889,759
8660,903,760
8665,916,758
8670,922,747
8675,940,751
8680,948,746
8685,958,745
8690,975,742
8695,986,740
8700,1008,732
8705,1012,734
8710,1020,724
8715,1035,729
8720,1042,715
8725,1063,720
8730,1074,719
8735,1080,718
8740,1089,714
8745,1101,714
8750,1108,710
8755,1114,711
8760,1119,711
8765,1134,708
8770,1139,713
8775,1144,704
8780,1154,706
8785,1159,705
8790,1153,711
8795,1174,707
8800,1175,709
8805,1175,714
8810,1181,713
8815,1176,714
8820,1184,720
8825,1190,722
8830,1179,724
8835,1178,724
8840,1190,728
8845,1188,734
8850,1182,739
8855,1183,732
8860,1192,741
8865,1180,743
8870,1183,747
8875,1184,757
8880,1172,760
8885,1175,760
8890,1174,765
8895,1169,771
8900,1160,779
8905,1171,779
8910,1159,792
8915,1153,787
8920,1151,787
8925,1148,798
8930,1147,804
8935,1147,805
8940,1142,805
8945,1126,809
8950,1135,812
8955,1126,819
8960,1132,825
8965,1123,832
8970,1122,832
8975,1127,839
8980,1111,836
8985,1111,846
8990,1104,850
8995,1117,849
9000,1101,849
9005,1097,849
9010,1106,854
9015,1100,853
9020,1096,864
9025,1096,857
9030,1091,862
9035,1092,863
9040,1083,864
9045,1083,864
9050,1081,866
9055,1082,866
9060,1084,873
9065,1074,863
9070,1073,868
9075,1058,866
9080,1072,867
9085,1069,867
9090,1068,867
9095,1057,867
9100,1060,866
9105,1051,868
9110,1044,860
9115,1036,864
9120,1040,862
9125,1030,855
9130,1020,857
9135,1023,862
9140,1015,857
9145,1011,854
9150,1005,857
9155,989,853
9160,992,849
9165,987,852
9170,976,852
9175,970,847
9180,953,853
9185,940,848
9190,938,847
9195,932,842
9200,918,843
9205,924,842
9210,904,838
9215,910,842
9220,891,836
9225,880,841
9230,867,841
9235,866,839
9240,848,837
9245,844,833
9250,840,833
9255,819,838
9260,819,830
9265,815,831
9270,809,828
9275,798,831
9280,792,831
9285,782,834
9290,774,831
9295,767,827
9300,766,826
9305,764,827
9310,753,828
9315,752,822
9320,759,825
9325,759,819
9330,750,822
9335,745,821
9340,756,820
9345,757,813
9350,745,815
9355,759,812
9360,752,815
9365,756,808
9370,764,803
9375,765,808
9380,768,799
9385,775,800
9390,785,796
9395,785,790
9400,801,795
9405,805,788
9410,809,781
9415,822,774
9420,823,779
9425,846,778
9430,861,775
9435,870,765
9440,878,766
9445,888,760
9450,900,752
9455,909,754
9460,918,755
9465,939,751
9470,939,740
9475,949,742
9480,962,745
9485,977,734
9490,993,730
9495,1013,737
9500,1015,726
9505,1033,725
9510,1041,729
9515,1053,723
9520,1056,721
9525,1073,715
9530,1084,714
9535,1092,718
9540,1104,712
9545,1099,714
9550,1115,712
9555,1132,709
9560,1130,707
9565,1145,709
9570,1147,712
9575,1160,715
9580,1167,710
9585,1160,711
9590,1165,713
9595,1174,713
9600,1173,717
9605,1179,717
9610,1187,723
9615,1188,719
9620,1191,719
9625,1184,730
9630,1189,730
9635,1196,731
9640,1198,736
9645,1190,740
9650,1202,740
9655,1183,744
9660,1185,746
9665,1179,750
9670,1170,755
9675,1177,762
9680,1174,764
9685,1167,766
9690,1171,768
9695,1163,782
9700,1163,782
9705,1159,786
9710,1159,789
9715,1152,795
9720,1150,794
9725,1152,801
9730,1142,805
9735,1147,812
9740,1140,814
9745,1132,821
9750,1137,821
9755,1130,824
9760,1122,830
9765,1119,832
9770,1118,839
9775,1103,838
9780,1107,847
9785,1109,845
9790,1112,848
9795,1096,847
9800,1106,852
9805,1104,854
9810,1089,858
9815,1101,859
9820,1087,857
9825,1092,860
9830,1102,865
9835,1094,866
9840,1088,864
9845,1091,863
9850,1084,863
9855,1083,868
9860,1073,870
9865,1078,870
9870,1067,869
9875,1064,872
9880,1055,862
9885,1060,870
9890,1059,861
9895,1053,861
9900,1040,865
9905,1044,864
9910,1043,861
9915,1031,858
9920,1040,859
9925,1023,860
9930,1019,865
9935,1014,859
9940,1005,861
9945,993,849
9950,997,854
9955,993,853
9960,976,852
9965,976,846
9970,973,849
9975,957,841
9980,941,848
9985,931,848
9990,931,844
9995,910,838
10000,921,842
10005,900,837
10010,893,838
10015,887,842
10020,882,836
10025,878,839
10030,862,833
10035,855,838
10040,834,836
10045,833,841
10050,817,831
10055,816,837
10060,800,828
10065,798,828
10070,797,835
10075,787,825
10080,790,825
10085,785,829
10090,774,825
10095,761,828
10100,765,827
10105,753,828
10110,759,822
10115,754,824
10120,741,817
10125,745,819
10130,749,813
10135,745,815
10140,748,815
10145,757,812
10150,748,811
10155,756,804
10160,759,802
10165,760,803
10170,757,801
10175,769,801
10180,780,794
10185,780,795
10190,799,786
10195,796,788
10200,800,780
10205,818,785
10210,822,782
10215,842,776
10220,844,777
10225,859,773
10230,865,767
10235,891,762
10240,895,762
10245,905,753
10250,916,759
10255,929,750
10260,938,749
10265,955,743
10270,967,744
10275,977,740
10280,988,734
10285,996,734
10290,1010,728
10295,1018,732
10300,1035,726
10305,1049,720
10310,1058,720
10315,1070,717
10320,1078,717
10325,1091,721
10330,1099,716
10335,1105,714
10340,1108,708
10345,1121,703
10350,1125,705
10355,1137,713
10360,1143,707
10365,1148,706
10370,1158,711
10375,1153,708
10380,1167,715
10385,1176,713
10390,1185,720
10395,1180,713
10400,1182,724
10405,1179,718
10410,1191,722
10415,1186,725
10420,1181,730
10425,1188,735
10430,1192,730
10435,1182,736
10440,1189,736
10445,1188,746
10450,1189,744
10455,1182,750
10460,1179,755
10465,1177,756
10470,1183,760
10475,1176,764
10480,1174,767
10485,1170,775
10490,1161,778
10495,1168,785
10500,1160,787
10505,1161,788
10510,1152,792
10515,1138,801
10520,1148,803
10525,1138,806
10530,1138,809
10535,1137,821
10540,1132,819
10545,1129,822
10550,1135,821
10555,1120,833
10560,1113,836
10565,1118,835
10570,1110,842
10575,1107,844
10580,1099,842
10585,1108,851
10590,1105,851
10595,1113,851
10600,1099,856
10605,1101,859
10610,1095,864
10615,1092,863
10620,1090,862
10625,1093,864
10630,1083,868
10635,1083,864
10640,1083,866
10645,1078,869
10650,1074,866
10655,1078,867
10660,1064,864
10665,1066,864
10670,1064,864
10675,1062,867
10680,1060,868
10685,1054,864
10690,1047,862
10695,1044,864
10700,1043,865
10705,1044,860
10710,1030,865
10715,1018,852
10720,1027,857
10725,1021,857
10730,1005,860
10735,993,858
10740,999,848
10745,994,852
10750,987,852
10755,977,847
10760,964,846
10765,965,848
10770,951,849
10775,948,845
10780,937,843
10785,924,841
10790,921,837
10795,905,838
10800,913,838
10805,889,834
10810,888,840
10815,869,838
10820,865,837
10825,851,832
10830,851,835
10835,846,836
10840,831,833
10845,814,837
10850,814,829
10855,807,832
10860,799,827
10865,782,833
10870,786,828
10875,787,828
10880,778,825
10885,762,829
10890,757,831
10895,758,830
10900,752,824
10905,747,821
10910,751,817
10915,749,814
10920,741,816
10925,749,820
10930,748,820
10935,756,810
10940,748,813
10945,752,807
10950,750,804
10955,757,800
10960,761,803
10965,765,799
10970,774,800
10975,780,791
10980,788,791
10985,786,790
10990,801,785
10995,808,786
11000,816,782
11005,826,781
11010,839,775
11015,859,771
11020,867,770
11025,864,766
11030,875,757
11035,895,759
11040,905,753
11045,920,755
11050,931,749
11055,939,746
11060,954,738
11065,965,737
11070,978,733
11075,990,738
11080,1005,731
11085,1010,730
11090,1025,723
11095,1049,723
11100,1038,724
11105,1059,722
11110,1056,721
11115,1080,713
11120,1090,714
11125,1100,716
11130,1105,713
11135,1115,714
11140,1117,707
11145,1139,709
11150,1144,709
11155,1147,711
11160,1156,714
11165,1162,711
11170,1160,708
11175,1158,713
11180,1172,714
11185,1175,715
11190,1182,716
11195,1180,719
11200,1188,723
11205,1183,728
11210,1185,726
11215,1185,727
11220,1186,733
11225,1184,736
11230,1194,736
11235,1178,742
11240,1176,747
11245,1179,748
11250,1174,752
11255,1183,755
11260,1174,760
11265,1178,761
11270,1172,767
11275,1171,769
11280,1164,779
11285,1160,787
11290,1156,786
11295,1157,787
11300,1147,789
11305,1145,797
11310,1143,802
11315,1142,804
11320,1140,810
11325,1131,819
11330,1131,818
11335,1124,822
11340,1131,823
11345,1129,830
11350,1119,836
11355,1111,835
11360,1117,839
11365,1114,837
11370,1113,844
11375,1098,847
11380,1108,850
11385,1110,857
11390,1105,860
11395,1098,860
11400,1094,864
11405,1090,872
11410,1086,860
11415,1086,864
11420,1089,862
11425,1090,863
11430,1075,866
11435,1085,867
11440,1079,864
11445,1076,867
11450,1075,866
11455,1070,868
11460,1064,868
11465,1068,867
11470,1066,869
11475,1058,870
11480,1059,863
11485,1045,865
11490,1040,870
11495,1039,866
11500,1044,860
11505,1040,857
11510,1021,857
11515,1021,857
11520,1013,857
11525,1014,856
11530,1001,856
11535,1007,855
11540,995,852
11545,985,848
11550,972,851
11555,950,845
11560,965,845
11565,939,844
11570,936,846
11575,923,847
11580,916,842
11585,916,843
11590,897,843
11595,897,842
11600,886,837
11605,871,838
11610,860,841
11615,860,834
11620,845,834
11625,843,835
11630,835,834
11635,822,833
11640,818,835
11645,803,832
11650,794,827
11655,795,831
11660,789,823
11665,785,829
11670,767,829
11675,770,826
11680,758,820
11685,760,830
11690,763,824
11695,756,820
11700,746,822
11705,749,816
11710,747,815
11715,746,815
11720,746,818
11725,759,817
11730,747,807
11735,753,813
11740,758,807
11745,754,799
11750,762,801
11755,753,806
11760,777,799
11765,780,794
11770,780,794
11775,787,795
11780,799,789
11785,804,787
11790,816,786
11795,811,778
11800,838,779
11805,844,777
11810,856,772
11815,870,767
11820,883,759
11825,886,760
11830,901,756
11835,911,746
11840,927,757
11845,935,745
11850,951,743
11855,962,742
11860,972,737
11865,984,740
11870,988,736
11875,1009,726
11880,1026,725
11885,1029,729
11890,1045,724
11895,1052,720
11900,1076,717
11905,1085,716
11910,1076,720
11915,1094,714
11920,1105,705
11925,1114,709
11930,1125,708
11935,1130,717
11940,1134,706
11945,1145,706
11950,1153,716
11955,1159,708
11960,1162,715
11965,1161,706
11970,1177,716
11975,1177,710
11980,1176,717
11985,1174,718
11990,1182,723
11995,1177,719
12000,1176,721
12005,1200,723
12010,1189,729
12015,1185,731
12020,1196,737
12025,1187,735
12030,1188,743
12035,1189,739
12040,1189,754
12045,1178,750
12050,1174,765
12055,1171,757
12060,1167,762
12065,1171,770
12070,1173,773
12075,1170,780
12080,1159,784
12085,1154,787
12090,1153,791
12095,1154,794
12100,1149,801
12105,1141,808
12110,1148,808
12115,1144,817
12120,1134,809
12125,1122,820
12130,1127,826
12135,1126,828
12140,1115,833
12145,1128,835
12150,1118,833
12155,1116,843
12160,1108,850
12165,1115,847
12170,1116,849
12175,1100,851
12180,1105,855
12185,1105,856
12190,1102,856
12195,1096,864
12200,1093,863
12205,1086,864
12210,1088,863
12215,1090,866
12220,1094,863
12225,1083,869
12230,1078,866
12235,1081,868
12240,1076,867
12245,1079,866
12250,1074,868
12255,1057,866
12260,1064,867
12265,1058,867
12270,1051,861
12275,1056,868
12280,1053,860
12285,1049,864
12290,1040,858
12295,1031,860
12300,1029,860
12305,1025,864
12310,1020,863
12315,1003,857
12320,1002,856
12325,1000,854
12330,988,850
12335,990,848
12340,980,852
12345,971,850
12350,958,845
12355,946,843
12360,946,844
12365,929,851
12370,921,840
12375,917,845
12380,896,840
12385,888,837
12390,891,833
12395,883,839
12400,871,841
12405,859,842
12410,860,835
12415,852,837
12420,842,832
12425,832,832
12430,829,835
12435,828,830
12440,801,831
12445,797,834
12450,797,830
12455,771,828
12460,774,828
12465,776,826
12470,777,826
12475,759,827
12480,756,830
12485,756,821
12490,742,825
12495,745,815
12500,753,821
12505,750,823
12510,745,816
12515,745,811
12520,747,813
12525,756,809
12530,749,811
12535,749,807
12540,765,794
12545,768,800
12550,771,796
12555,774,800
12560,779,799
12565,793,789
12570,800,792
12575,801,789
12580,813,783
12585,819,779
12590,833,783
12595,835,773
12600,852,770
12605,859,773
12610,868,767
12615,876,762
12620,891,759
12625,902,753
12630,917,749
12635,934,748
12640,945,743
12645,957,737
12650,968,737
12655,987,743
12660,989,737
12665,998,729
12670,1012,728
12675,1024,727
12680,1040,727
12685,1053,722
12690,1060,718
12695,1071,720
12700,1082,711
12705,1089,713
12710,1096,710
12715,1110,706
12720,1124,711
12725,1123,706
12730,1134,707
12735,1137,711
12740,1155,702
12745,1147,706
12750,1169,710
12755,1161,709
12760,1175,706
12765,1180,715
12770,1171,715
12775,1179,720
12780,1185,717
12785,1180,721
12790,1179,727
12795,1186,720
12800,1189,724
12805,1182,722
12810,1187,732
12815,1194,729
12820,1193,737
12825,1183,737
12830,1187,747
12835,1180,751
12840,1181,757
12845,1176,762
12850,1184,762
12855,1173,773
12860,1175,772
12865,1165,776
12870,1172,778
12875,1156,783
12880,1151,787
12885,1159,797
12890,1144,804
12895,1152,802
12900,1151,811
12905,1143,811
12910,1138,820
12915,1130,817
12920,1134,824
12925,1129,829
12930,1121,829
12935,1120,837
12940,1119,839
12945,1107,840
12950,1122,842
12955,1114,843
12960,1107,845
12965,1116,849
12970,1100,855
12975,1102,854
12980,1098,852
12985,1093,862
12990,1093,861
12995,1089,860
13000,1093,861
13005,1088,858
13010,1099,861
13015,1076,867
13020,1083,864
13025,1080,866
13030,1085,863
13035,1069,867
13040,1074,863
13045,1073,870
13050,1065,865
13055,1064,869
13060,1059,872
13065,1047,862
13070,1053,863
13075,1046,867
13080,1036,860
13085,1036,864
13090,1023,857
13095,1031,856
13100,1021,860
13105,1021,857
13110,1013,854
13115,1006,852
13120,991,848
13125,987,853
13130,976,855
13135,973,852
13140,957,848
13145,966,846
13150,945,846
13155,942,839
13160,920,840
13165,921,842
13170,921,841
13175,909,839
13180,890,838
13185,884,834
13190,877,835
13195,860,837
13200,852,831
13205,858,834
13210,840,837
13215,827,833
13220,830,830
13225,823,833
13230,797,835
13235,800,824
13240,792,836
13245,790,826
13250,781,829
13255,770,825
13260,774,825
13265,762,822
13270,761,823
13275,755,827
13280,754,825
13285,756,821
13290,749,819
13295,745,820
13300,755,822
13305,754,817
13310,745,812
13315,757,809
13320,751,811
13325,758,809
13330,758,810
13335,765,798
13340,774,804
13345,767,804
13350,784,793
13355,793,794
13360,776,793
13365,796,788
13370,798,787
13375,821,782
13380,824,782
13385,831,781
13390,844,774
13395,852,770
13400,864,765
13405,876,768
13410,886,759
13415,905,755
13420,918,751
13425,922,756
13430,940,756
13435,950,741
13440,958,745
13445,966,740
13450,977,733
13455,996,731
13460,1012,729
13465,1022,729
13470,1028,725
13475,1046,725
13480,1051,718
13485,1063,718
13490,1078,719
13495,1085,716
13500,1088,712
13505,1110,715
13510,1112,717
13515,1122,707
13520,1135,715
13525,1128,708
13530,1143,712
13535,1146,708
13540,1161,712
13545,1166,713
13550,1166,716
13555,1177,713
13560,1180,715
13565,1179,714
13570,1176,717
13575,1183,717
13580,1174,724
13585,1188,719
13590,1186,727
13595,1188,731
13600,1190,729
13605,1179,735
13610,1189,737
13615,1183,743
13620,1183,746
13625,1186,747
13630,1178,758
13635,1180,754
13640,1186,759
13645,1175,770
13650,1181,771
13655,1167,772
13660,1167,776
13665,1158,780
13670,1156,790
13675,1161,788
13680,1148,793
13685,1140,794
13690,1150,807
13695,1148,806
13700,1140,809
13705,1139,814
13710,1136,820
13715,1134,826
13720,1127,829
13725,1129,831
13730,1128,835
13735,1112,839
13740,1122,843
13745,1109,843
13750,1111,848
13755,1099,850
13760,1104,853
13765,1106,852
13770,1095,858
13775,1102,858
13780,1090,854
13785,1098,857
13790,1094,858
13795,1086,868
13800,1084,867
13805,1090,864
13810,1083,864
13815,1073,867
13820,1092,870
13825,1074,867
13830,1074,866
13835,1066,866
13840,1066,863
13845,1067,871
13850,1060,866
13855,1067,865
13860,1054,862
13865,1050,859
13870,1047,863
13875,1047,865
13880,1044,861
13885,1036,858
13890,1023,861
13895,1015,862
13900,1012,856
13905,1012,859
13910,996,851
13915,990,850
13920,993,847
13925,980,846
13930,972,843
13935,954,849
13940,949,847
13945,943,842
13950,932,847
13955,926,840
13960,923,840
13965,911,839
13970,902,840
13975,891,840
13980,883,837
13985,879,839
13990,862,842
13995,855,833
14000,846,832
14005,840,832
14010,826,835
14015,822,832
14020,812,826
14025,811,828
14030,795,830
14035,794,830
14040,784,833
14045,784,830
14050,769,830
14055,770,819
14060,751,830
14065,759,821
14070,758,827
14075,759,824
14080,749,819
14085,754,818
14090,753,819
14095,751,818
14100,747,820
14105,754,813
14110,752,814
14115,753,806
14120,757,810
14125,763,810
14130,768,802
14135,774,797
14140,780,800
14145,786,791
14150,787,796
14155,783,788
14160,794,789
14165,812,782
14170,819,778
14175,826,772
14180,831,773
14185,846,773
14190,858,766
14195,871,763
14200,884,765
14205,896,764
14210,906,760
14215,918,757
14220,940,746
14225,947,752
14230,955,740
14235,958,742
14240,979,737
14245,984,731
14250,1003,733
14255,1015,726
14260,1012,730
14265,1035,726
14270,1049,722
14275,1061,724
14280,1064,713
14285,1075,716
14290,1092,713
14295,1104,715
14300,1107,714
14305,1117,714
14310,1138,709
14315,1134,711
14320,1136,713
14325,1147,713
14330,1161,710
14335,1162,707
14340,1170,710
14345,1175,707
14350,1169,712
14355,1180,712
14360,1181,714
14365,1177,721
14370,1184,719
14375,1187,727
14380,1183,720
14385,1193,724
14390,1191,726
14395,1189,728
14400,1196,733
14405,1182,742
14410,1178,745
14415,1187,753
14420,1176,750
14425,1169,756
14430,1185,760
14435,1177,757
14440,1170,768
14445,1169,768
14450,1165,779
14455,1167,782
14460,1163,785
14465,1159,788
14470,1155,792
14475,1156,795
14480,1142,797
14485,1139,803
14490,1143,813
14495,1147,812
14500,1131,813
14505,1136,827
14510,1130,829
14515,1126,832
14520,1127,833
14525,1114,838
14530,1114,835
14535,1109,847
14540,1109,842
14545,1107,848
14550,1099,848
14555,1097,857
14560,1103,857
14565,1102,853
14570,1102,854
14575,1095,859
14580,1096,863
14585,1078,865
14590,1086,859
14595,1085,864
14600,1084,864
14605,1082,868
14610,1086,867
14615,1072,867
14620,1078,869
14625,1078,862
14630,1068,865
14635,1068,868
14640,1057,867
14645,1053,864
14650,1053,859
14655,1050,861
14660,1046,862
14665,1045,861
14670,1037,866
14675,1030,856
14680,1037,868
14685,1028,854
14690,1016,857
14695,1010,853
14700,995,857
14705,996,852
14710,981,852
14715,970,854
14720,972,851
14725,965,851
14730,960,849
14735,956,848
14740,940,845
14745,923,844
14750,917,847
14755,915,838
14760,898,841
14765,895,841
14770,894,838
14775,878,840
14780,870,841
14785,856,835
14790,845,838
14795,834,827
14800,827,836
14805,827,831
14810,815,835
14815,802,828
14820,807,830
14825,803,827
14830,781,832
14835,785,828
14840,766,828
14845,775,834
14850,767,824
14855,767,830
14860,755,827
14865,753,821
14870,751,820
14875,751,823
14880,745,819
14885,739,814
14890,753,814
14895,750,813
14900,749,808
14905,751,816
14910,748,810
14915,756,807
14920,757,801
14925,772,796
14930,769,798
14935,769,797
14940,779,794
14945,789,789
14950,799,794
14955,809,786
14960,812,784
14965,823,776
14970,840,779
14975,843,773
14980,861,773
14985,870,767
14990,878,761
14995,889,766
15000,897,760
15005,911,753
15010,917,749
15015,944,748
15020,954,749
15025,964,740
15030,967,736
15035,986,739
15040,991,730
15045,1008,734
15050,1020,731
15055,1029,729
15060,1049,727
15065,1055,721
15070,1072,716
15075,1072,723
15080,1084,717
15085,1097,715
15090,1107,715
15095,1111,709
15100,1119,710
15105,1125,713
15110,1132,714
15115,1142,709
15120,1145,714
15125,1149,710
15130,1162,708
15135,1167,712
15140,1163,714
15145,1171,717
15150,1176,715
15155,1183,719
15160,1183,718
15165,1186,725
15170,1187,727
15175,1194,732
15180,1195,731
15185,1194,733
15190,1193,739
15195,1197,736
15200,1193,739
15205,1173,745
15210,1180,745
15215,1186,753
15220,1177,755
15225,1176,761
15230,1172,763
15235,1168,771
15240,1170,769
15245,1171,779
15250,1158,788
15255,1150,786
15260,1158,791
15265,1149,795
15270,1147,797
15275,1147,803
15280,1134,809
15285,1132,816
15290,1130,816
15295,1131,823
15300,1133,819
15305,1124,826
15310,1121,834
15315,1115,834
15320,1124,839
15325,1117,842
15330,1114,842
15335,1108,847
15340,1108,846
15345,1103,851
15350,1106,859
15355,1101,855
15360,1087,857
15365,1088,855
15370,1089,868
15375,1091,854
15380,1085,860
15385,1085,866
15390,1079,870
15395,1087,868
15400,1083,870
15405,1081,868
15410,1076,863
15415,1071,863
15420,1064,872
15425,1066,869
15430,1079,865
15435,1067,867
15440,1047,864
15445,1051,864
15450,1052,861
15455,1045,858
15460,1042,861
15465,1034,861
15470,1024,865
15475,1025,861
15480,1021,858
15485,1014,854
15490,1006,855
15495,996,854
15500,989,859
15505,985,850
15510,975,848
15515,970,852
15520,961,851
15525,954,848
15530,937,847
15535,941,842
15540,921,847
15545,922,839
15550,906,836
15555,901,836
15560,892,839
15565,885,840
15570,873,835
15575,874,839
15580,857,834
15585,841,833
15590,831,836
15595,830,831
15600,831,829
15605,814,836
15610,804,831
15615,803,834
15620,792,823
15625,790,832
15630,784,828
15635,776,828
15640,759,824
15645,760,828
15650,763,817
15655,762,818
15660,756,820
15665,749,819
15670,747,827
15675,750,821
15680,751,814
15685,745,812
15690,743,812
15695,744,812
15700,741,805
15705,754,805
15710,766,805
15715,759,804
15720,772,798
15725,774,793
15730,782,796
15735,793,788
15740,792,791
15745,801,789
15750,815,784
15755,819,785
15760,827,778
15765,847,771
15770,842,768
15775,850,775
15780,874,765
15785,880,764
15790,892,763
15795,911,759
15800,906,751
15805,935,741
15810,945,747
15815,950,742
15820,972,736
15825,978,741
15830,998,731
15835,995,734
15840,1006,726
15845,1022,726
15850,1036,723
15855,1042,725
15860,1063,719
15865,1065,720
15870,1082,717
15875,1089,716
15880,1101,710
15885,1105,716
15890,1115,704
15895,1122,711
15900,1134,707
15905,1142,711
15910,1139,708
15915,1163,713
15920,1161,712
15925,1174,710
15930,1170,707
15935,1176,719
15940,1176,715
15945,1174,714
15950,1186,715
15955,1192,718
15960,1181,722
15965,1183,727
15970,1187,728
15975,1185,726
15980,1186,738
15985,1192,734
15990,1185,743
15995,1185,741
16000,1189,750
16004,1182,753
16010,1178,761
16015,1180,756
16020,1182,762
16024,1168,771
16030,1176,770
16035,1160,774
16040,1162,786
16045,1163,782
16050,1153,785
16055,1155,795
16059,1141,799
16065,1146,798
16070,1141,805
16075,1144,809
16079,1145,810
16085,1140,816
16090,1128,821
16094,1122,830
16100,1121,828
16105,1128,834
16110,1120,836
16114,1123,846
16120,1118,838
16125,1117,846
16129,1110,849
16135,1106,850
16140,1102,855
16145,1104,852
16149,1102,857
16155,1099,861
16160,1099,862
16165,1085,860
16170,1089,862
16175,1086,864
16180,1088,862
16184,1092,864
16190,1085,863
16195,1080,866
16200,1073,870
16204,1075,872
16210,1073,876
16215,1072,871
16219,1072,867
16225,1062,869
16230,1053,868
16235,1058,868
16239,1052,865
16245,1035,865
16250,1039,860
16254,1043,865
16260,1031,858
16265,1029,860
16270,1029,858
16274,1021,855
16280,1006,862
16285,1009,855
16290,996,851
16295,993,851
16300,991,849
16305,973,847
16309,964,845
16315,953,852
16320,941,843
16325,952,844
16329,933,845
16335,932,842
16340,917,837
16344,909,840
16350,890,843
16355,881,837
16360,875,838
16364,866,841
16370,865,834
16375,848,834
16379,843,835
16385,834,832
16390,827,836
16395,823,831
16400,807,833
16405,803,828
16410,794,832
16415,779,830
16420,780,830
16425,779,830
16430,775,829
16435,766,824
16440,762,825
16445,752,819
16450,759,823
16455,750,822
16460,756,820
16465,749,822
16470,752,818
16475,748,814
16480,749,808
16485,749,809
16490,743,814
16495,757,805
16500,760,809
16505,755,808
16510,768,800
16515,777,794
16520,772,797
16525,786,798
16530,781,788
16535,804,784
16540,809,788
16545,818,781
16550,824,777
16555,841,777
16560,845,772
16565,850,774
16570,866,765
16575,875,762
16580,889,764
16585,906,765
16590,914,758
16595,912,750
16600,940,748
16605,953,742
16610,953,742
16615,977,741
16620,984,732
16625,999,731
16630,1012,727
16635,1012,727
16640,1036,728
16645,1038,722
16650,1045,725
16655,1074,722
16660,1080,718
16665,1084,716
16670,1094,717
16675,1095,713
16680,1118,711
16685,1121,713
16690,1125,707
16695,1133,707
16700,1137,708
16705,1138,707
16710,1151,710
16715,1152,714
16720,1161,708
16725,1175,709
16730,1175,714
16735,1171,715
16740,1181,714
16745,1195,718
16750,1182,720
16755,1191,722
16760,1185,729
16765,1196,727
16770,1184,739
16775,1188,726
16780,1178,739
16785,1177,746
16790,1183,748
16795,1173,751
16800,1185,751
16805,1171,756
16810,1173,760
16815,1165,763
16820,1158,769
16825,1166,769
16830,1167,780
16835,1159,785
16840,1154,788
16845,1157,792
16850,1155,797
16855,1148,801
16860,1152,801
16865,1141,807
16870,1145,812
16875,1135,824
16880,1137,820
16885,1135,824
16890,1126,825
16895,1127,839
16900,1110,836
16905,1124,834
16910,1113,838
16915,1118,847
16920,1105,849
16925,1111,849
16930,1109,851
16935,1103,858
16940,1105,854
16945,1095,854
16950,1101,860
16955,1090,863
16960,1096,864
16965,1091,864
16970,1098,867
16975,1088,858
16980,1082,867
16985,1090,867
16990,1077,869
16995,1079,868
17000,1073,871
17005,1071,870
17010,1064,868
17015,1064,864
17020,1055,865
17025,1050,864
17030,1056,868
17035,1053,868
17040,1038,866
17045,1036,859
17050,1034,864
17055,1033,859
17060,1027,858
17065,1021,858
17070,1010,854
17075,997,853
17080,1013,856
17085,987,854
17090,985,855
17095,980,850
17100,961,853
17105,971,849
17110,963,844
17115,949,848
17120,931,842
17125,934,845
17130,921,845
17135,917,840
17140,901,838
17145,891,839
17150,885,840
17155,874,840
17160,869,833
17165,861,834
17170,843,835
17175,839,831
17180,824,834
17185,832,832
17190,814,832
17195,801,830
17200,805,830
17205,799,826
17210,788,829
17215,780,830
17220,765,829
17225,768,826
17230,766,826
17235,761,830
17240,745,823
17245,755,825
17250,751,821
17255,737,818
17260,744,818
17265,753,816
17270,739,809
17275,753,813
17280,743,812
17285,747,811
17290,752,804
17295,758,804
17300,765,804
17305,775,799
17310,775,798
17315,776,799
17320,787,796
17325,799,786
17330,799,789
17335,811,784
17340,822,787
17345,819,783
17350,839,773
17355,854,778
17360,854,770
17365,860,767
17370,873,764
17375,879,760
17380,911,759
17385,922,752
17390,930,750
17395,942,746
17400,956,737
17405,969,741
17410,977,739
17415,994,736
17420,1002,736
17425,1019,732
17430,1033,723
17435,1036,725
17440,1040,725
17445,1056,726
17450,1068,716
17455,1086,716
17460,1087,716
17465,1102,715
17470,1101,710
17475,1126,708
17480,1120,712
17485,1129,708
17490,1139,709
17495,1148,706
17500,1150,714
17505,1158,708
17510,1174,712
17515,1168,712
17520,1178,710
17525,1166,714
17530,1181,719
17535,1177,713
17540,1179,716
17545,1188,726
17550,1195,723
17555,1185,728
17560,1185,729
17565,1180,734
17570,1186,740
17575,1192,740
17580,1185,745
17585,1185,752
17590,1179,753
17595,1186,752
17600,1174,761
17605,1179,758
17610,1163,764
17615,1171,772
17620,1162,775
17625,1150,780
17630,1159,779
17635,1169,792
17640,1151,795
17645,1139,803
17650,1144,796
17655,1140,812
17660,1134,804
17665,1142,816
17670,1127,820
17675,1119,819
17680,1128,826
17685,1138,832
17690,1130,832
17695,1125,837
17700,1123,832
17705,1123,839
17710,1111,845
17715,1101,846
17720,1103,849
17725,1105,854
17730,1102,851
17735,1101,855
17740,1091,861
17745,1092,861
17750,1104,858
17755,1099,860
17760,1089,864
17765,1090,860
17770,1077,870
17775,1082,870
17780,1083,864
17785,1076,867
17790,1077,862
17795,1077,872
17800,1074,870
17805,1070,865
17810,1055,866
17815,1058,868
17820,1055,871
17825,1045,866
17830,1045,864
17835,1040,867
17840,1035,861
17845,1025,861
17850,1024,856
17855,1019,859
17860,1007,856
17865,1017,856
17870,996,847
17875,1007,856
17880,985,855
17885,980,853
17890,970,850
17895,973,848
17900,970,848
17905,957,840
17910,945,847
17915,936,841
17920,923,838
17925,916,843
17930,904,836
17935,906,837
17940,887,835
17945,876,838
17950,878,838
17955,863,838
17960,846,836
17965,837,837
17970,840,828
17975,831,836
17980,818,832
17985,808,827
17990,804,832
17995,798,827
18000,791,829
18005,775,828
18010,763,832
18015,776,827
18020,766,821
18025,765,820
18030,751,821
18035,754,824
18040,753,824
18045,743,821
18050,755,820
18055,743,818
18060,743,815
18065,749,818
18070,749,814
18075,756,813
18080,751,808
18085,763,802
18090,763,800
18095,774,799
18100,779,793
18105,773,797
18110,785,788
18115,781,792
18120,798,789
18125,805,786
18130,802,787
18135,824,780
18140,828,782
18145,847,772
18150,848,776
18155,871,772
18160,869,768
18165,891,760
18170,896,754
18175,904,760
18180,925,750
18185,933,746
18190,952,747
18195,967,747
18200,970,738
18205,975,733
18210,999,735
18215,999,730
18220,1028,727
18225,1030,723
18230,1040,721
18235,1047,721
18240,1060,719
18245,1073,718
18250,1089,720
18255,1095,715
18260,1106,710
18265,1112,711
18270,1116,711
18275,1128,707
18280,1137,710
18285,1146,710
18290,1150,709
18295,1155,709
18300,1157,709
18305,1160,710
18310,1162,711
18315,1167,716
18320,1167,711
18325,1181,723
18330,1178,720
18335,1183,726
18340,1178,722
18345,1186,728
18350,1189,733
18355,1188,732
18360,1194,739
18365,1187,738
18370,1183,740
18375,1197,744
18380,1182,746
18385,1179,753
18390,1177,754
18395,1181,762
18400,1170,766
18405,1174,770
18410,1166,772
18415,1163,777
18420,1173,780
18425,1157,788
18430,1158,794
18435,1159,794
18440,1157,794
18445,1139,796
18450,1139,811
18455,1135,816
18460,1138,815
18465,1140,821
18470,1131,824
18475,1128,825
18480,1131,832
18485,1123,839
18490,1118,841
18495,1116,841
18500,1107,845
18505,1108,845
18510,1110,851
18515,1109,857
18520,1109,856
18525,1097,852
18530,1100,858
18535,1092,856
18540,1096,862
18545,1092,861
18550,1090,864
18555,1081,861
18560,1082,863
18565,1090,865
18570,1078,868
18575,1074,868
18580,1075,867
18585,1074,867
18590,1069,873
18595,1068,869
18600,1061,866
18605,1056,869
18610,1058,867
18615,1049,870
18620,1031,860
18625,1045,863
18630,1038,862
18635,1026,852
18640,1034,857
18645,1030,860
18650,1012,861
18655,1012,855
18660,1003,859
18665,1002,858
18670,991,855
18675,997,851
18680,977,852
18685,974,848
18690,958,849
18695,950,846
18700,935,845
18705,936,846
18710,927,841
18715,920,842
18720,909,839
18725,905,838
18730,887,837
18735,887,841
18740,875,835
18745,870,840
18750,860,839
18755,857,833
18760,838,837
18765,830,830
18770,817,822
18775,809,832
18780,804,831
18785,794,835
18790,790,837
18795,787,829
18800,780,826
18805,774,828
18810,767,827
18815,753,824
18820,753,821
18825,753,823
18830,753,824
18835,752,824
18840,745,819
18845,738,816
18850,749,811
18855,754,814
18860,753,814
18865,738,808
18870,750,814
18875,754,808
18880,758,804
18885,761,801
18890,769,803
18895,767,800
18900,776,797
18905,787,793
18910,798,791
18915,802,788
18920,809,783
18925,816,783
18930,825,787
18935,848,776
18940,853,774
18945,857,767
18950,862,767
18955,883,764
18960,893,761
18965,901,758
18970,916,755
18975,927,747
18980,940,750
18985,956,743
18990,960,743
18995,985,739
19000,1002,739
19005,1002,735
19010,1009,731
19015,1030,727
19020,1031,725
19025,1043,718
19030,1057,723
19035,1074,717
19040,1080,718
19045,1089,713
19050,1105,711
19055,1102,713
19060,1117,716
19065,1126,712
19070,1139,713
19075,1144,705
19080,1144,710
19085,1152,709
19090,1151,710
19095,1166,709
19100,1171,712
19105,1171,709
19110,1173,715
19115,1179,715
19120,1172,713
19125,1187,719
19130,1191,722
19135,1186,724
19140,1191,721
19145,1189,731
19150,1191,731
19155,1186,739
19160,1204,738
19165,1184,736
19170,1180,747
19175,1186,755
19180,1174,760
19185,1180,756
19190,1173,763
19195,1169,767
19200,1171,772
19205,1156,772
19210,1166,777
19215,1163,780
19220,1158,786
19225,1150,794
19230,1152,795
19235,1140,801
19240,1133,805
19245,1134,815
19250,1126,809
19255,1139,823
19260,1130,825
19265,1129,824
19270,1118,824
19275,1112,832
19280,1113,838
19285,1108,838
19290,1120,842
19295,1114,844
19300,1104,850
19305,1108,850
19310,1099,854
19315,1101,855
19320,1102,856
19325,1101,863
19330,1095,863
19335,1089,862
19340,1088,860
19345,1086,864
19350,1086,866
19355,1086,864
19360,1077,868
19365,1078,870
19370,1076,867
19375,1072,863
19380,1072,862
19385,1073,866
19390,1071,871
19395,1059,864
19400,1056,869
19405,1056,865
19410,1052,865
19415,1038,868
19420,1040,860
19425,1036,864
19430,1034,857
19435,1023,860
19440,1021,858
19445,1017,857
19450,999,854
19455,998,852
19460,999,853
19465,984,853
19470,987,856
19475,970,842
19480,958,850
19485,967,846
19490,962,843
19495,943,847
19500,930,852
19505,930,844
19510,921,840
19515,898,840
19520,898,844
19525,891,839
19530,877,838
19535,866,836
19540,861,833
19545,857,836
19550,837,834
19555,843,833
19560,826,833
19565,822,833
19570,803,831
19575,811,830
19580,800,835
19585,786,826
19590,785,832
19595,783,826
19600,777,828
19605,762,831
19610,758,822
19615,765,826
19620,759,827
19625,754,821
19630,755,820
19635,749,816
19640,758,816
19645,751,818
19650,745,816
19655,741,818
19660,755,812
19665,746,812
19670,756,808
19675,754,805
19680,777,799
19685,765,803
19690,772,796
19695,770,797
19700,794,797
19705,802,791
19710,796,781
19715,807,790
19720,821,781
19725,825,775
19730,846,774
19735,855,773
19740,860,770
19745,875,763
19750,889,761
19755,898,751
19760,902,758
19765,916,754
19770,933,751
19775,944,745
19780,968,738
19785,967,740
19790,975,742
19795,993,734
19800,1005,734
19805,1021,723
19810,1034,726
19815,1045,726
19820,1054,718
19825,1061,722
19830,1070,720
19835,1082,712
19840,1092,709
19845,1095,718
19850,1118,720
19855,1117,702
19860,1131,705
19865,1140,708
19870,1144,709
19875,1149,704
19880,1153,714
19885,1159,709
19890,1165,711
19895,1176,711
19900,1169,714
19905,1163,716
19910,1178,717
19915,1174,725
19920,1192,717
19925,1185,729
19930,1186,720
19935,1193,730
19940,1187,735
19945,1181,735
19950,1186,739
19955,1180,733
19960,1184,743
19965,1184,745
19970,1172,752
19975,1177,751
19980,1174,762
19985,1169,768
19990,1166,772
19995,1167,776
20000,1151,775
20005,1153,782
20010,1164,784
20015,1155,789
20020,1146,792
20025,1157,796
20030,1147,808
20035,1128,807
20040,1138,813
20045,1135,815
20050,1134,818
20055,1124,824
20060,1125,825
20065,1125,829
20070,1129,834
20075,1123,843
20080,1116,844
20085,1114,842
20090,1120,853
20095,1100,846
20100,1108,856
20105,1101,855
20110,1102,853
20115,1101,855
20120,1087,857
20125,1095,865
20130,1085,859
20135,1095,862
20140,1086,865
20145,1085,867
20150,1075,867
20155,1068,866
20160,1077,868
20165,1079,865
20170,1073,866
20175,1062,873
20180,1066,873
20185,1058,865
20190,1064,866
20195,1048,866
20200,1052,865
20205,1054,862
20210,1050,861
20215,1043,867
20220,1039,861
20225,1031,859
20230,1017,857
20235,1019,856
20240,1023,858
20245,1001,854
20250,999,858
20255,984,850
20260,980,849
20265,982,849
20270,983,846
20275,952,851
20280,956,849
20285,939,847
20290,934,842
20295,928,844
20300,924,840
20305,909,844
20310,904,839
20315,895,840
20320,888,840
20325,876,838
20330,869,839
20335,846,836
20340,849,834
20345,837,837
20350,828,837
20355,817,833
20360,820,835
20365,805,831
20370,801,829
20375,788,829
20380,785,830
20385,783,832
20390,770,829
20395,773,827
20400,763,827
20405,763,823
20410,749,826
20415,758,817
20420,745,822
20425,752,817
20430,747,814
20435,743,813
20440,747,818
20445,745,816
20450,748,811
20455,758,812
20460,741,810
20465,756,808
20470,746,806
20475,763,795
20480,775,796
20485,776,794
20490,782,790
20495,804,791
20500,806,788
20505,813,782
20510,815,786
20515,825,784
20520,841,777
20525,846,775
20530,859,772
20535,867,763
20540,873,760
20545,893,759
20550,902,760
20555,922,750
20560,924,751
20565,931,748
20570,957,745
20575,964,739
20580,982,736
20585,976,735
20590,1002,732
20595,1008,734
20600,1030,729
20605,1039,726
20610,1045,718
20615,1056,720
20620,1076,716
20625,1078,719
20630,1088,720
20635,1101,718
20640,1107,716
20645,1104,712
20650,1133,705
20655,1126,710
20660,1132,706
20665,1147,708
20670,1151,707
20675,1164,712
20680,1162,710
20685,1165,710
20690,1176,713
20695,1169,711
20700,1179,714
20705,1185,716
20710,1182,716
20715,1185,724
20720,1185,721
20725,1182,726
20730,1191,724
20735,1184,736
20740,1187,741
20745,1185,737
20750,1185,737
20755,1189,743
20760,1177,751
20765,1185,753
20770,1173,762
20775,1175,762
20780,1174,769
20785,1170,774
20790,1168,779
20795,1171,774
20800,1163,778
20805,1158,788
20810,1155,791
20815,1155,804
20820,1147,800
20825,1144,806
20830,1150,810
20835,1134,812
20840,1139,813
20845,1134,826
20850,1126,827
20855,1126,831
20860,1120,840
20865,1116,833
20870,1112,843
20875,1117,841
20880,1116,844
20885,1121,847
20890,1112,849
20895,1113,858
20900,1104,849
20905,1111,857
20910,1095,857
20915,1092,859
20920,1092,861
20925,1081,865
20930,1083,866
20935,1092,865
20940,1091,866
20945,1086,864
20950,1079,871
20955,1065,866
20960,1080,869
20965,1070,866
20970,1071,864
20975,1066,866
20980,1067,867
20985,1061,870
20990,1059,872
20995,1052,860
21000,1053,860
21005,1041,861
21010,1038,861
21015,1024,861
21020,1031,858
21025,1026,860
21030,1009,857
21035,1009,857
21040,1004,846
21045,998,851
21050,998,849
21055,983,854
21060,971,853
21065,965,849
21070,958,850
21075,950,843
21080,944,843
21085,922,846
21090,928,844
21095,915,840
21100,908,841
21105,899,834
21110,886,831
21115,889,843
21120,872,838
21125,868,843
21130,856,834
21135,843,836
21140,839,837
21145,832,835
21150,812,835
21155,813,829
21160,806,832
21165,795,828
21170,789,825
21175,782,829
21180,775,829
21185,775,829
21190,768,824
21195,770,825
21200,762,824
21205,760,816
21210,757,819
21215,745,822
21220,742,818
21225,745,815
21230,744,814
21235,759,816
21240,753,815
21245,745,818
21250,754,813
21255,763,808
21260,763,807
21265,761,808
21270,774,798
21275,772,801
21280,790,796
21285,785,791
21290,796,788
21295,806,787
21300,810,781
21305,828,781
21310,841,783
21315,825,771
21320,853,770
21325,862,766
21330,868,765
21335,887,761
21340,889,756
21345,901,756
21350,913,751
21355,928,745
21360,941,745
21365,953,743
21370,976,740
21375,984,733
21380,992,735
21385,1005,730
21390,1015,726
21395,1037,722
21400,1046,730
21405,1055,721
21410,1066,716
21415,1073,719
21420,1083,721
21425,1091,710
21430,1103,717
21435,1106,708
21440,1118,706
21445,1121,711
21450,1133,708
21455,1131,709
21460,1153,713
21465,1157,716
21470,1157,713
21475,1161,715
21480,1168,715
21485,1175,712
21490,1169,712
21495,1178,713
21500,1177,715
21505,1179,723
21510,1188,725
21515,1191,724
21520,1190,722
21525,1187,734
21530,1189,730
21535,1186,738
21540,1185,737
21545,1188,737
21550,1184,742
21555,1179,755
21560,1177,757
21565,1180,759
21570,1178,761
21575,1160,766
21580,1169,773
21585,1165,778
21590,1163,781
21595,1163,782
21600,1159,790
21605,1146,795
21610,1151,798
21615,1144,798
21620,1144,811
21625,1139,815
21630,1139,817
21635,1139,815
21640,1133,824
21645,1123,824
21650,1130,834
21655,1126,833
21660,1129,840
21665,1114,837
21670,1117,842
21675,1109,844
21680,1108,850
21685,1097,845
21690,1098,860
21695,1105,856
21700,1100,858
21705,1090,862
21710,1094,862
21715,1099,862
21720,1087,869
21725,1089,868
21730,1080,865
21735,1083,867
21740,1085,869
21745,1083,866
21750,1073,872
21755,1072,872
21760,1081,863
21765,1063,866
21770,1061,861
21775,1056,862
21780,1055,864
21785,1050,866
21790,1049,865
21795,1054,861
21800,1039,855
21805,1036,865
21810,1030,855
21815,1025,856
21820,1009,852
21825,1011,857
21830,999,855
21835,1002,850
21840,997,850
21845,989,848
21850,976,848
21855,970,842
21860,961,855
21865,952,846
21870,960,845
21875,940,844
21880,938,850
21885,919,846
21890,914,838
21895,902,839
21900,889,844
21905,885,844
21910,861,835
21915,864,836
21920,858,833
21925,850,837
21930,837,835
21935,835,838
21940,817,837
21945,820,833
21950,806,827
21955,800,831
21960,799,832
21965,778,828
21970,766,827
21975,782,825
21980,770,824
21985,762,826
21990,755,821
21995,753,824
22000,762,820
22005,746,818
22010,750,822
22015,745,816
22020,748,818
22025,736,816
22030,747,812
22035,749,812
22040,750,813
22045,754,807
22050,760,809
22055,772,799
22060,769,799
22065,762,799
22070,787,788
22075,784,793
22080,784,792
22085,794,787
22090,808,788
22095,825,780
22100,817,782
22105,828,781
22110,846,770
22115,853,772
22120,871,765
22125,886,760
22130,890,764
22135,898,760
22140,919,752
22145,927,747
22150,934,750
22155,946,744
22160,964,741
22165,973,740
22170,982,741
22175,1009,732
22180,1014,732
22185,1026,733
22190,1039,726
22195,1044,723
22200,1057,719
22205,1066,719
22210,1067,717
22215,1089,719
22220,1100,716
22225,1104,712
22230,1112,707
22235,1127,713
22240,1124,710
22245,1140,709
22250,1142,706
22255,1148,713
22260,1165,711
22265,1160,711
22270,1173,710
22275,1163,713
22280,1178,710
22285,1177,715
22290,1184,711
22295,1187,726
22300,1190,726
22305,1190,726
22310,1186,724
22315,1194,733
22320,1187,731
22325,1184,740
22330,1183,743
22335,1191,744
22340,1183,739
22345,1188,748
22350,1175,761
22355,1181,757
22360,1176,759
22365,1181,772
22370,1171,768
22375,1156,778
22380,1164,780
22385,1155,787
22390,1165,787
22395,1155,793
22400,1146,797
22405,1148,801
22410,1143,810
22415,1139,807
22420,1135,813
22425,1133,819
22430,1135,822
22435,1134,826
22440,1130,831
22445,1123,833
22450,1119,838
22455,1127,837
22460,1110,846
22465,1115,841
22470,1112,848
22475,1108,848
22480,1107,849
22485,1093,856
22490,1097,860
22495,1094,856
22500,1093,858
22505,1095,858
22510,1093,862
22515,1086,869
22520,1092,869
22525,1087,865
22530,1088,865
22535,1088,868
22540,1079,864
22545,1070,871
22550,1071,872
22555,1067,865
22560,1065,865
22565,1061,870
22570,1067,863
22575,1067,864
22580,1055,862
22585,1046,864
22590,1037,866
22595,1042,859
22600,1032,858
22605,1024,859
22610,1019,853
22615,1012,859
22620,1011,856
22625,995,854
22630,997,850
22635,997,857
22640,983,853
22645,976,846
22650,971,845
22655,958,847
22660,948,846
22665,942,850
22670,927,841
22675,921,836
22680,914,843
22685,915,840
22690,900,837
22695,899,833
22700,887,838
22705,875,842
22710,860,843
22715,860,838
22720,849,842
22725,834,835
22730,828,832
22735,824,830
22740,818,830
22745,806,835
22750,808,834
22755,780,824
22760,784,830
22765,778,830
22770,765,831
22775,760,825
22780,763,828
22785,755,826
22790,758,817
22795,752,825
22800,754,817
22805,742,819
22810,746,817
22815,744,818
22820,752,817
22825,749,814
22830,747,811
22835,752,806
22840,766,813
22845,762,800
22850,769,796
22855,770,793
22860,789,796
22865,785,799
22870,792,789
22875,790,788
22880,808,789
22885,815,781
22890,823,782
22895,830,778
22900,838,777
22905,856,766
22910,857,767
22915,872,770
22920,880,763
22925,898,762
22930,905,759
22935,918,754
22940,932,752
22945,948,746
22950,963,747
22955,976,739
22960,979,736
22965,988,731
22970,994,730
22975,1021,729
22980,1022,731
22985,1037,733
22990,1044,721
22995,1065,723
23000,1069,716
23005,1072,714
23010,1090,712
23015,1101,716
23020,1106,707
23025,1116,712
23030,1124,710
23035,1134,712
23040,1139,712
23045,1150,709
23050,1147,712
23055,1163,706
23060,1161,711
23065,1170,710
23070,1171,707
23075,1161,713
23080,1181,717
23085,1184,716
23090,1188,717
23095,1177,724
23100,1194,730
23105,1188,728
23110,1189,732
23115,1187,734
23120,1189,740
23125,1187,739
23130,1183,748
23135,1187,752
23140,1175,753
23145,1182,763
23150,1184,759
23155,1179,768
23160,1168,772
23165,1167,771
23170,1162,779
23175,1157,783
23180,1163,786
23185,1166,792
23190,1154,791
23195,1156,800
23200,1146,804
23205,1137,809
23210,1139,814
23215,1131,814
23220,1128,818
23225,1129,819
23230,1131,823
23235,1124,832
23240,1121,834
23245,1112,842
23250,1124,837
23255,1123,843
23260,1107,848
23265,1106,848
23270,1106,855
23275,1099,852
23280,1109,856
23285,1102,856
23290,1096,860
23295,1088,856
23300,1088,866
23305,1094,863
23310,1089,863
23315,1091,867
23320,1078,866
23325,1074,863
23330,1078,866
23335,1073,870
23340,1075,873
23345,1072,865
23350,1077,866
23355,1066,865
23360,1073,859
23365,1067,866
23370,1044,861
23375,1041,863
23380,1042,868
23385,1038,861
23390,1033,857
23395,1031,854
23400,1026,860
23405,1028,857
23410,1009,860
23415,1005,859
23420,1004,855
23425,987,855
23430,979,854
23435,988,847
23440,974,848
23445,965,845
23450,956,854
23455,944,851
23460,937,840
23465,921,839
23470,933,842
23475,906,843
23480,904,842
23485,897,842
23490,884,838
23495,878,843
23500,867,836
23505,853,835
23510,842,842
23515,839,841
23520,837,831
23525,817,834
23530,814,832
23535,809,836
23540,811,835
23545,802,827
23550,796,830
23555,792,827
23560,769,825
23565,774,825
23570,766,825
23575,763,820
23580,755,824
23585,751,819
23590,749,823
23595,736,819
23600,746,824
23605,753,812
23610,743,815
23615,747,813
23620,749,815
23625,753,816
23630,757,809
23635,761,805
23640,764,805
23645,764,803
23650,770,799
23655,785,795
23660,789,790
23665,790,789
23670,800,788
23675,803,788
23680,809,785
23685,828,779
23690,838,776
23695,849,774
23700,851,773
23705,872,774
23710,880,764
23715,895,761
23720,902,757
23725,913,751
23730,932,750
23735,932,750
23740,949,747
23745,971,739
23750,975,736
23755,994,735
23760,987,733
23765,1008,730
23770,1018,734
23775,1032,727
23780,1053,724
23785,1065,723
23790,1073,713
23795,1080,718
23800,1081,721
23805,1100,714
23810,1102,715
23815,1117,715
23820,1114,708
23825,1128,708
23830,1136,712
23835,1151,713
23840,1151,708
23845,1152,709
23850,1164,711
23855,1167,714
23860,1171,718
23865,1177,715
23870,1178,714
23875,1176,719
23880,1179,720
23885,1178,722
23890,1188,721
23895,1191,726
23900,1187,726
23905,1195,733
23910,1189,733
23915,1188,735
23920,1191,747
23925,1186,744
23930,1178,749
23935,1179,750
23940,1186,757
23945,1184,763
23950,1177,768
23955,1175,768
23960,1169,777
23965,1162,780
23970,1159,783
23975,1155,784
23980,1149,789
23985,1149,800
23990,1141,800
23995,1148,805
24000,1140,804
24005,1131,809
24010,1132,814
24015,1130,822
24020,1141,824
24025,1117,828
24030,1125,831
24035,1115,840
24040,1118,839
24045,1114,836
24050,1109,845
24055,1112,849
24060,1102,851
24065,1108,853
24070,1100,853
24075,1097,856
24080,1099,859
24085,1098,860
24090,1091,864
24095,1098,863
24100,1096,861
24105,1082,867
24110,1082,870
24115,1082,868
24120,1083,866
24125,1072,871
24130,1070,862
24135,1071,863
24140,1069,870
24145,1063,866
24150,1062,868
24155,1059,866
24160,1059,866
24165,1051,864
24170,1056,862
24175,1040,858
24180,1040,864
24185,1035,866
24190,1023,861
24195,1021,854
24200,1015,857
24205,1008,854
24210,1005,859
24215,988,857
24220,987,850
24225,974,856
24230,967,845
24235,966,847
24240,957,843
24245,953,850
24250,946,846
24255,926,838
24260,927,842
24265,919,840
24270,908,847
24275,907,836
24280,889,842
24285,881,836
24290,871,840
24295,864,839
24300,850,833
24305,845,830
24310,835,834
24315,831,830
24320,821,836
24325,809,832
24330,802,834
24335,802,832
24340,785,830
24345,782,830
24350,776,822
24355,762,825
24360,762,829
24365,770,831
24370,761,820
24375,757,817
24380,754,822
24385,748,826
24390,756,820
24395,748,821
24400,752,814
24405,755,810
24410,755,810
24415,750,812
24420,747,810
24425,755,807
24430,754,810
24435,771,799
24440,763,797
24445,768,806
24450,785,797
24455,788,791
24460,795,790
24465,807,784
24470,813,780
24475,819,781
24480,833,773
24485,839,776
24490,845,774
24495,858,771
24500,869,762
24505,890,761
24510,897,753
24515,911,754
24520,919,751
24525,933,754
24530,942,745
24535,952,738
24540,974,745
24545,976,738
24550,985,735
24555,1003,731
24560,1017,724
24565,1025,727
24570,1046,724
24575,1043,723
24580,1062,727
24585,1068,716
24590,1082,711
24595,1092,711
24600,1108,710
24605,1103,710
24610,1118,712
24615,1126,706
24620,1138,703
24625,1142,704
24630,1145,715
24635,1153,707
24640,1158,712
24645,1159,709
24650,1169,712
24655,1171,710
24660,1174,714
24665,1186,710
24670,1174,717
24675,1182,717
24680,1187,722
24685,1195,729
24690,1188,726
24695,1178,734
24700,1194,731
24705,1187,740
24710,1180,740
24715,1174,744
24720,1185,745
24725,1178,751
24730,1173,757
24735,1162,761
24740,1172,761
24745,1169,769
24750,1166,773
24755,1160,778
24760,1161,783
24765,1159,789
24770,1158,791
24775,1162,795
24780,1141,798
24785,1141,803
24790,1160,801
24795,1144,811
24800,1136,812
24805,1130,821
24810,1136,818
24815,1116,823
24820,1121,831
24825,1125,833
24830,1108,839
24835,1105,841
24840,1110,840
24845,1111,848
24850,1112,850
24855,1115,851
24860,1101,851
24865,1092,857
24870,1097,857
24875,1096,855
24880,1095,862
24885,1098,871
24890,1080,868
24895,1088,862
24900,1085,863
24905,1085,870
24910,1070,864
24915,1083,872
24920,1081,862
24925,1074,863
24930,1071,876
24935,1063,866
24940,1068,866
24945,1071,869
24950,1057,867
24955,1056,867
24960,1051,861
24965,1037,868
24970,1040,864
24975,1038,853
24980,1035,857
24985,1024,857
24990,1024,860
24995,1010,859
25000,997,856
25005,1003,851
25010,997,850
25015,980,854
25020,975,849
25025,970,845
25030,960,847
25035,962,850
25040,948,843
25045,941,846
25050,936,842
25055,926,844
25060,906,844
25065,904,836
25070,893,837
25075,887,835
25080,878,843
25085,866,838
25090,860,837
25095,850,833
25100,848,828
25105,831,832
25110,823,830
25115,822,833
25120,812,831
25125,791,834
25130,795,830
25135,789,829
25140,779,829
25145,773,827
25150,758,830
25155,765,824
25160,757,822
25165,757,829
25170,753,820
25175,750,828
25180,745,824
25185,744,818
25190,760,812
25195,736,817
25200,750,818
25205,751,812
25210,754,809
25215,759,805
25220,760,808
25225,764,803
25230,765,799
25235,771,798
25240,785,795
25245,786,792
25250,788,796
25255,798,790
25260,807,786
25265,821,780
25270,827,785
25275,837,779
25280,843,773
25285,856,769
25290,859,769
25295,884,763
25300,882,766
25305,888,758
25310,915,753
25315,933,753
25320,939,747
25325,943,745
25330,964,741
25335,970,736
25340,991,738
25345,993,735
25350,1013,728
25355,1020,735
25360,1028,728
25365,1041,725
25370,1062,723
25375,1069,717
25380,1081,720
25385,1079,711
25390,1098,711
25395,1105,714
25400,1114,711
25405,1128,709
25410,1121,710
25415,1132,706
25420,1155,708
25425,1153,713
25430,1156,706
25435,1164,712
25440,1169,711
25445,1164,709
25450,1174,713
25455,1182,715
25460,1178,717
25465,1180,721
25470,1183,720
25475,1181,724
25480,1189,725
25485,1184,730
25490,1186,735
25495,1191,733
25500,1185,733
25505,1194,740
25510,1191,749
25515,1187,754
25520,1187,752
25525,1175,762
25530,1164,760
25535,1170,764
25540,1160,774
25545,1170,772
25550,1167,781
25555,1151,787
25560,1159,782
25565,1162,796
25570,1152,798
25575,1152,798
25580,1151,803
25585,1141,812
25590,1145,812
25595,1129,821
25600,1133,821
25605,1130,826
25610,1124,835
25615,1121,828
25620,1118,841
25625,1105,839
25630,1112,846
25635,1115,844
25640,1102,848
25645,1096,846
25650,1105,847
25655,1101,854
25660,1093,855
25665,1096,861
25670,1094,860
25675,1094,866
25680,1097,864
25685,1088,862
25690,1085,866
25695,1087,864
25700,1084,860
25705,1085,867
25710,1083,862
25715,1069,866
25720,1074,864
25725,1072,871
25730,1066,864
25735,1069,869
25740,1057,865
25745,1051,867
25750,1057,867
25755,1054,862
25760,1045,862
25765,1043,860
25770,1033,859
25775,1033,862
25780,1016,852
25785,1029,857
25790,1010,855
25795,1008,854
25800,994,853
25805,995,859
25810,985,855
25815,967,849
25820,960,850
25825,953,852
25830,947,845
25835,935,844
25840,941,844
25845,922,843
25850,919,848
25855,907,842
25860,907,843
25865,893,840
25870,885,838
25875,876,834
25880,864,834
25885,854,842
25890,845,833
25895,840,835
25900,830,832
25905,831,834
25910,814,835
25915,808,825
25920,789,829
25925,790,829
25930,788,820
25935,777,829
25940,766,828
25945,768,823
25950,756,819
25955,760,829
25960,750,820
25965,758,820
25970,751,817
25975,750,816
25980,740,812
25985,746,814
25990,747,819
25995,743,813
26000,742,809
26005,760,802
26010,755,801
26015,766,804
26020,758,803
26025,767,798
26030,779,793
26035,779,791
26040,789,793
26045,792,784
26050,797,780
26055,813,780
26060,819,785
26065,829,774
26070,840,776
26075,855,772
26080,851,771
26085,878,763
26090,872,765
26095,886,755
26100,907,749
26105,912,747
26110,936,748
26115,939,745
26120,963,748
26125,973,740
26130,981,739
26135,994,736
26140,999,731
26145,1015,731
26150,1025,723
26155,1044,722
26160,1049,716
26165,1051,717
26170,1080,721
26175,1082,719
26180,1096,714
26185,1099,715
26190,1102,715
26195,1114,715
26200,1123,711
26205,1133,712
26210,1141,708
26215,1151,711
26220,1148,710
26225,1163,715
26230,1169,706
26235,1167,713
26240,1177,708
26245,1172,712
26250,1164,717
26255,1174,722
26260,1186,718
26265,1176,724
26270,1186,724
26275,1172,725
26280,1180,730
26285,1189,729
26290,1184,738
26295,1195,745
26300,1188,746
26305,1177,748
26310,1187,749
26315,1180,756
26320,1194,762
26325,1172,768
26330,1177,766
26335,1174,776
26340,1177,774
26345,1159,781
26350,1161,785
26355,1159,784
26360,1157,796
26365,1162,800
26370,1146,807
26375,1145,806
26380,1135,816
26385,1133,816
26390,1135,820
26395,1130,823
26400,1130,827
26405,1127,829
26410,1127,835
26415,1114,839
26420,1116,843
26425,1121,841
26430,1109,847
26435,1108,845
26440,1113,848
26445,1106,856
26450,1100,862
26455,1103,854
26460,1096,861
26465,1099,864
26470,1087,861
26475,1099,861
26480,1086,866
26485,1080,864
26490,1081,865
26495,1075,860
26500,1086,865
26505,1077,868
26510,1067,865
26515,1062,870
26520,1074,873
26525,1058,868
26530,1056,864
26535,1056,863
26540,1057,866
26545,1053,865
26550,1039,861
26555,1043,865
26560,1044,860
26565,1028,859
26570,1021,856
26575,1021,860
26580,1016,857
26585,1005,855
26590,999,845
26595,1005,854
26600,981,850
26605,986,847
26610,978,850
26615,970,847
26620,957,852
26625,946,844
26630,948,843
26635,937,849
26640,928,840
26645,909,841
26650,910,841
26655,893,841
26660,879,834
26665,870,833
26670,875,839
26675,859,840
26680,857,837
26685,842,832
26690,841,835
26695,824,835
26700,813,829
26705,812,837
26710,801,826
26715,802,833
26720,785,829
26725,777,831
26730,773,830
26735,771,827
26740,774,820
26745,766,819
26750,754,820
26755,755,822
26760,749,819
26765,753,824
26770,749,813
26775,742,812
26780,745,817
26785,740,821
26790,743,815
26795,751,808
26800,760,809
26805,766,812
26810,760,808
26815,764,799
26820,773,801
26825,774,805
26830,781,801
26835,788,789
26840,804,795
26845,817,785
26850,812,789
26855,825,773
26860,838,776
26865,848,768
26870,851,772
26875,864,768
26880,876,771
26885,888,765
26890,898,759
26895,913,756
26900,924,748
26905,934,749
26910,946,741
26915,956,740
26920,974,739
26925,987,734
26930,1005,734
26935,1009,728
26940,1021,727
26945,1040,732
26950,1041,718
26955,1067,724
26960,1063,723
26965,1081,717
26970,1086,714
26975,1092,716
26980,1110,712
26985,1114,708
26990,1117,714
26995,1128,710
27000,1133,711
27005,1154,708
27010,1147,710
27015,1163,708
27020,1173,712
27025,1173,714
27030,1173,712
27035,1174,710
27040,1178,722
27045,1177,716
27050,1185,722
27055,1188,717
27060,1185,728
27065,1198,729
27070,1180,733
27075,1186,735
27080,1191,731
27085,1192,740
27090,1180,739
27095,1185,749
27100,1177,754
27105,1178,750
27110,1184,759
27115,1167,765
27120,1173,765
27125,1175,767
27130,1171,773
27135,1154,782
27140,1150,779
27145,1155,786
27150,1154,792
27155,1159,793
27160,1143,806
27165,1147,805
27170,1143,807
27175,1143,813
27180,1124,816
27185,1129,816
27190,1126,825
27195,1125,829
27200,1115,833
27205,1118,836
27210,1120,838
27215,1109,846
27220,1112,848
27225,1108,842
27230,1104,845
27235,1106,852
27240,1101,852
27245,1098,856
27250,1104,854
27255,1095,864
27260,1094,860
27265,1093,865
27270,1089,863
27275,1089,862
27280,1079,865
27285,1077,862
27290,1081,866
27295,1069,866
27300,1076,868
27305,1072,863
27310,1069,866
27315,1067,870
27320,1069,870
27325,1059,860
27330,1064,862
27335,1065,869
27340,1046,864
27345,1056,864
27350,1038,862
27355,1028,863
27360,1028,864
27365,1029,858
27370,1023,856
27375,1009,853
27380,1008,850
27385,1001,853
27390,990,850
27395,990,852
27400,971,848
27405,970,844
27410,962,845
27415,951,846
27420,947,845
27425,935,842
27430,922,846
27435,915,840
27440,912,836
27445,911,836
27450,891,840
27455,878,839
27460,858,838
27465,856,835
27470,851,830
27475,845,837
27480,836,835
27485,824,835
27490,827,831
27495,814,833
27500,802,828
27505,796,833
27510,800,830
27515,784,825
27520,781,829
27525,771,824
27530,773,827
27535,772,823
27540,762,823
27545,759,827
27550,752,818
27555,749,825
27560,756,819
27565,750,821
27570,741,818
27575,745,807
27580,753,819
27585,748,812
27590,758,809
27595,757,805
27600,767,799
27605,759,806
27610,772,800
27615,770,804
27620,779,798
27625,783,798
27630,790,791
27635,812,790
27640,801,779
27645,818,782
27650,836,776
27655,834,776
27660,851,775
27665,857,766
27670,871,767
27675,884,757
27680,888,763
27685,898,759
27690,918,750
27695,929,748
27700,942,747
27705,950,740
27710,963,743
27715,984,740
27720,999,733
27725,1009,732
27730,1016,729
27735,1031,730
27740,1039,723
27745,1045,718
27750,1058,725
27755,1062,720
27760,1091,714
27765,1099,721
27770,1102,712
27775,1103,703
27780,1112,708
27785,1130,718
27790,1141,708
27795,1149,708
27800,1151,701
27805,1160,710
27810,1151,713
27815,1160,717
27820,1169,712
27825,1173,713
27830,1182,708
27835,1178,716
27840,1184,718
27845,1178,722
27850,1177,724
27855,1187,728
27860,1189,727
27865,1195,727
27870,1183,734
27875,1189,729
27880,1197,740
27885,1181,740
27890,1180,746
27895,1179,747
27900,1176,753
27905,1181,756
27910,1167,767
27915,1169,770
27920,1171,770
27925,1167,778
27930,1165,782
27935,1153,784
27940,1156,790
27945,1152,789
27950,1142,800
27955,1142,804
27960,1140,809
27965,1146,815
27970,1141,809
27975,1138,813
27980,1128,825
27985,1127,824
27990,1121,831
27995,1129,832
28000,1117,837
28005,1118,844
28010,1117,848
28015,1116,848
28020,1107,849
28025,1102,852
28030,1099,850
28035,1093,853
28040,1101,857
28045,1102,859
28050,1097,859
28055,1091,862
28060,1095,860
28065,1096,861
28070,1094,861
28075,1089,866
28080,1083,864
28085,1085,866
28090,1079,866
28095,1070,866
28100,1068,862
28105,1066,869
28110,1062,866
28115,1062,865
28120,1060,863
28125,1059,863
28130,1045,863
28135,1049,856
28140,1043,863
28145,1034,860
28150,1027,863
28155,1024,858
28160,1019,861
28165,1010,857
28170,1006,859
28175,994,855
28180,1001,850
28185,987,847
28190,990,842
28195,979,852
28200,976,848
28205,961,851
28210,943,841
28215,941,842
28220,928,842
28225,920,843
28230,914,847
28235,905,839
28240,902,833
28245,887,841
28250,880,836
28255,867,837
28260,865,838
28265,853,839
28270,835,834
28275,832,836
28280,828,832
28285,821,831
28290,815,832
28295,805,829
28300,810,824
28305,791,832
28310,783,829
28315,764,830
28320,768,826
28325,768,823
28330,756,828
28335,761,825
28340,753,824
28345,759,821
28350,752,821
28355,747,817
28360,745,819
28365,747,820
28370,750,817
28375,752,806
28380,750,808
28385,760,805
28390,762,810
28395,759,804
28400,772,801
28405,772,796
28410,784,801
28415,777,792
28420,794,793
28425,793,785
28430,804,786
28435,819,786
28440,818,783
28445,841,772
28450,840,772
28455,847,767
28460,868,771
28465,876,766
28470,880,765
28475,904,759
28480,906,756
28485,920,754
28490,931,742
28495,957,746
28500,970,742
28505,969,741
28510,987,734
28515,987,730
28520,1009,731
28525,1023,729
28530,1036,728
28535,1048,721
28540,1059,723
28545,1065,719
28550,1077,711
28555,1077,714
28560,1090,717
28565,1103,713
28570,1115,710
28575,1123,709
28580,1141,710
28585,1135,707
28590,1143,713
28595,1144,712
28600,1160,708
28605,1160,709
28610,1178,716
28615,1165,708
28620,1179,713
28625,1176,713
28630,1184,715
28635,1183,722
28640,1182,725
28645,1190,723
28650,1194,727
28655,1188,730
28660,1180,730
28665,1183,734
28670,1185,740
28675,1185,744
28680,1185,744
28685,1182,748
28690,1179,751
28695,1185,754
28700,1171,764
28705,1172,768
28710,1161,771
28715,1172,773
28720,1169,774
28725,1162,784
28730,1168,783
28735,1160,793
28740,1156,797
28745,1149,799
28750,1148,804
28755,1136,803
28760,1138,814
28765,1143,819
28770,1119,824
28775,1138,826
28780,1134,823
28785,1123,833
28790,1124,831
28795,1121,838
28800,1113,841
28805,1110,845
28810,1116,842
28815,1105,851
28820,1106,849
28825,1100,854
28830,1100,851
28835,1092,855
28840,1101,864
28845,1086,865
28850,1089,864
28855,1090,863
28860,1081,865
28865,1085,862
28870,1086,866
28875,1078,867
28880,1068,868
28885,1069,866
28890,1072,863
28895,1067,872
28900,1074,868
28905,1063,866
28910,1063,872
28915,1061,863
28920,1056,863
28925,1049,862
28930,1043,867
28935,1041,863
28940,1031,864
28945,1033,858
28950,1031,861
28955,1011,854
28960,1017,856
28965,997,849
28970,1006,852
28975,999,850
28980,982,849
28985,976,851
28990,977,849
28995,953,847
29000,954,842
29005,947,841
29010,933,834
29015,926,844
29020,923,843
29025,909,843
29030,908,839
29035,891,836
29040,876,836
29045,867,835
29050,866,834
29055,852,831
29060,841,833
29065,840,834
29070,830,831
29075,820,835
29080,810,832
29085,803,829
29090,800,833
29095,785,826
29100,787,832
29105,782,831
29110,781,829
29115,770,824
29120,772,822
29125,762,826
29130,762,825
29135,760,817
29140,747,823
29145,746,817
29150,751,820
29155,752,816
29160,747,817
29165,748,814
29170,753,813
29175,750,808
29180,747,811
29185,754,807
29190,764,800
29195,765,800
29200,788,794
29205,786,798
29210,782,790
29215,800,790
29220,804,783
29225,811,785
29230,815,787
29235,833,775
29240,841,777
29245,841,771
29250,852,765
29255,863,764
29260,883,762
29265,895,752
29270,899,752
29275,922,749
29280,930,747
29285,952,750
29290,953,743
29295,975,737
29300,978,745
29305,993,729
29310,1004,732
29315,1006,724
29320,1025,722
29325,1037,718
29330,1053,729
29335,1055,718
29340,1071,715
29345,1079,713
29350,1087,716
29355,1094,712
29360,1104,714
29365,1112,715
29370,1134,716
29375,1124,714
29380,1138,714
29385,1141,710
29390,1159,708
29395,1164,707
29400,1151,710
29405,1170,709
29410,1177,711
29415,1168,715
29420,1172,713
29425,1184,715
29430,1194,718
29435,1181,723
29440,1189,724
29445,1196,725
29450,1194,726
29455,1186,733
29460,1182,741
29465,1187,740
29470,1185,738
29475,1180,751
29480,1186,753
29485,1169,756
29490,1187,765
29495,1172,763
29500,1173,766
29505,1165,770
29510,1165,775
29515,1168,772
29520,1158,792
29525,1157,785
29530,1155,797
29535,1153,798
29540,1150,798
29545,1142,805
29550,1137,807
29555,1132,814
29560,1137,822
29565,1124,823
29570,1129,827
29575,1129,834
29580,1116,836
29585,1108,835
29590,1110,839
29595,1115,849
29600,1109,847
29605,1107,847
29610,1101,849
29615,1107,856
29620,1097,860
29625,1092,867
29630,1098,861
29635,1096,865
29640,1095,859
29645,1096,866
29650,1078,865
29655,1076,869
29660,1086,870
29665,1081,867
29670,1077,864
29675,1075,869
29680,1079,862
29685,1087,868
29690,1070,867
29695,1071,863
29700,1059,870
29705,1055,867
29710,1055,870
29715,1047,867
29720,1055,863
29725,1038,855
29730,1026,860
29735,1033,855
29740,1029,854
29745,1022,859
29750,1015,854
29755,1001,858
29760,998,853
29765,1002,854
29770,993,856
29775,978,853
29780,974,848
29785,966,847
29790,959,846
29795,952,847
29800,940,847
29805,933,844
29810,917,837
29815,913,841
29820,902,842
29825,905,842
29830,892,836
29835,882,838
29840,867,836
29845,853,835
29850,856,838
29855,835,832
29860,838,838
29865,829,833
29870,819,828
29875,813,828
29880,799,828
29885,790,830
29890,785,826
29895,780,829
29900,774,826
29905,775,829
29910,769,828
29915,761,825
29920,755,826
29925,752,822
29930,748,821
29935,746,823
29940,744,820
29945,753,818
29950,750,820
29955,744,817
29960,751,812
29965,752,809
29970,753,806
29975,752,801
29980,766,806
29985,762,794
29990,768,795
29995,770,797
30000,791,798
30005,787,790
30010,804,788
30015,805,781
30020,826,785
30025,825,778
30030,825,775
30035,846,770
30040,861,772
30045,861,773
30050,882,770
30055,884,758
30060,909,758
30065,912,748
30070,924,747
30075,939,751
30080,935,741
30085,957,738
30090,966,744
30095,982,743
30100,989,733
30105,1006,732
30110,1025,733
30115,1023,729
30120,1040,726
30125,1049,726
30130,1063,723
30135,1083,715
30140,1083,711
30145,1090,717
30150,1108,711
30155,1114,716
30160,1123,708
30165,1137,714
30170,1139,712
30175,1141,703
30180,1153,706
30185,1164,705
30190,1161,713
30195,1164,713
30200,1168,713
30205,1176,717
30210,1174,715
30215,1181,716
30220,1187,720
30225,1191,717
30230,1196,722
30235,1191,728
30240,1187,732
30245,1188,734
30250,1187,734
30255,1193,741
30260,1182,742
30265,1185,748
30270,1189,751
30275,1181,747
30280,1175,752
30285,1184,757
30290,1177,765
30295,1178,765
30300,1164,772
30305,1168,776
30310,1167,779
30315,1156,783
30320,1147,792
30325,1148,794
30330,1140,798
30335,1149,801
30340,1138,803
30345,1137,817
30350,1140,820
30355,1133,824
30360,1127,823
30365,1127,829
30370,1127,829
30375,1118,837
30380,1103,842
30385,1107,841
30390,1114,842
30395,1113,849
30400,1109,851
30405,1097,851
30410,1101,853
30415,1095,860
30420,1096,859
30425,1091,854
30430,1092,857
30435,1086,867
30440,1095,859
30445,1094,867
30450,1087,867
30455,1072,865
30460,1088,864
30465,1079,866
30470,1080,870
30475,1069,871
30480,1072,869
30485,1048,864
30490,1070,871
30495,1050,864
30500,1051,860
30505,1053,867
30510,1052,865
30515,1046,856
30520,1052,859
30525,1026,861
30530,1034,866
30535,1022,857
30540,1015,861
30545,1008,857
30550,1002,857
30555,998,855
30560,984,845
30565,992,853
30570,976,855
30575,972,844
30580,953,846
30585,949,846
30590,950,841
30595,943,844
30600,925,840
30605,924,836
30610,913,839
30615,893,837
30620,881,841
30625,890,841
30630,868,841
30635,868,836
30640,850,835
30645,840,834
30650,843,834
30655,825,834
30660,826,831
30665,811,833
30670,815,831
30675,795,827
30680,793,827
30685,790,821
30690,782,828
30695,779,829
30700,768,830
30705,765,825
30710,760,824
30715,758,823
30720,755,818
30725,748,820
30730,750,817
30735,746,815
30740,750,821
30745,745,809
30750,752,811
30755,755,811
30760,754,813
30765,756,808
30770,755,806
30775,759,800
30780,770,798
30785,780,802
30790,783,799
30795,787,787
30800,795,789
30805,806,790
30810,809,792
30815,811,786
30820,827,778
30825,840,769
30830,842,775
30835,847,769
30840,872,763
30845,885,761
30850,894,765
30855,909,756
30860,912,757
30865,929,750
30870,946,750
30875,944,748
30880,962,739
30885,966,736
30890,987,741
30895,1006,731
30900,1010,728
30905,1025,726
30910,1045,728
30915,1052,725
30920,1059,722
30925,1073,717
30930,1076,714
30935,1089,707
30940,1098,713
30945,1110,711
30950,1109,709
30955,1126,704
30960,1133,708
30965,1140,713
30970,1149,707
30975,1140,711
30980,1161,708
30985,1170,707
30990,1173,708
30995,1176,714
31000,1173,718
31005,1178,723
31010,1187,719
31015,1189,719
31020,1191,720
31025,1196,725
31030,1196,731
31035,1186,730
31040,1191,736
31045,1182,740
31050,1181,740
31055,1183,736
31060,1175,746
31065,1176,748
31070,1181,758
31075,1175,759
31080,1182,763
31085,1167,767
31090,1173,769
31095,1160,776
31100,1161,784
31105,1158,782
31110,1155,791
31115,1159,796
31120,1154,795
31125,1156,801
31130,1143,808
31135,1138,811
31140,1141,820
31145,1142,821
31150,1145,826
31155,1137,832
31160,1121,824
31165,1120,835
31170,1127,838
31175,1114,832
31180,1114,841
31185,1105,844
31190,1107,852
31195,1113,852
31200,1108,853
31205,1105,851
31210,1100,858
31215,1090,858
31220,1086,858
31225,1095,863
31230,1088,861
31235,1081,868
31240,1083,863
31245,1076,868
31250,1082,869
31255,1080,868
31260,1074,866
31265,1081,871
31270,1076,868
31275,1068,865
31280,1069,864
31285,1067,866
31290,1055,867
31295,1058,863
31300,1054,862
31305,1040,863
31310,1050,861
31315,1043,865
31320,1032,860
31325,1019,857
31330,1028,854
31335,1019,856
31340,1001,856
31345,999,861
31350,1004,853
31355,978,853
31360,984,846
31365,971,852
31370,970,848
31375,955,846
31380,934,847
31385,940,838
31390,939,844
31395,926,845
31400,911,848
31405,916,840
31410,894,839
31415,892,840
31420,869,837
31425,867,838
31430,862,836
31435,848,837
31440,841,833
31445,835,833
31450,821,832
31455,813,834
31460,810,836
31465,803,834
31470,796,831
31475,791,837
31480,783,833
31485,779,825
31490,767,825
31495,769,822
31500,761,826
31505,753,820
31510,752,826
31515,750,821
31520,759,815
31525,755,823
31530,760,817
31535,750,813
31540,753,807
31545,750,816
31550,744,815
31555,759,810
31560,754,806
31565,760,804
31570,763,803
31575,765,801
31580,782,799
31585,796,795
31590,793,792
31595,809,787
31600,806,784
31605,806,780
31610,826,782
31615,831,778
31620,843,776
31625,843,769
31630,859,767
31635,864,762
31640,887,759
31645,900,751
31650,913,754
31655,924,752
31660,931,753
31665,948,742
31670,960,740
31675,965,745
31680,986,735
31685,1003,730
31690,1011,732
31695,1017,725
31700,1030,723
31705,1046,723
31710,1050,718
31715,1061,717
31720,1079,717
31725,1078,713
31730,1093,716
31735,1103,710
31740,1109,711
31745,1120,708
31750,1128,709
31755,1139,707
31760,1153,707
31765,1150,712
31770,1160,707
31775,1163,714
31780,1164,712
31785,1171,711
31790,1185,715
31795,1185,717
31800,1186,717
31805,1181,720
31810,1184,727
31815,1184,720
31820,1188,727
31825,1196,726
31830,1201,724
31835,1186,736
31840,1193,734
31845,1190,735
31850,1187,740
31855,1188,753
31860,1178,754
31865,1176,760
31870,1176,759
31875,1178,766
31880,1161,767
31885,1178,773
31890,1160,777
31895,1164,786
31900,1150,792
31905,1143,787
31910,1152,793
31915,1143,794
31920,1151,809
31925,1139,807
31930,1135,811
31935,1128,821
31940,1134,818
31945,1126,822
31950,1131,826
31955,1120,830
31960,1126,835
31965,1121,845
31970,1112,849
31975,1108,846
31980,1113,845
31985,1103,848
31990,1101,860
31995,1102,855
32000,1106,857
32005,1101,862
32009,1091,857
32015,1094,863
32020,1087,867
32025,1086,861
32030,1087,861
32034,1085,863
32040,1082,862
32045,1077,861
32049,1089,872
32055,1079,867
32060,1074,869
32064,1070,866
32070,1068,863
32075,1065,858
32080,1054,868
32085,1064,866
32090,1050,871
32095,1051,860
32100,1049,862
32104,1037,862
32110,1040,858
32115,1026,857
32119,1018,864
32125,1013,860
32130,1005,855
32134,1010,853
32140,996,854
32145,988,849
32150,986,851
32155,969,852
32159,969,845
32165,961,850
32170,953,847
32174,948,848
32180,933,842
32185,927,849
32189,925,840
32195,913,839
32200,898,838
32205,888,839
32210,886,837
32215,866,843
32220,861,835
32225,858,836
32229,844,840
32235,844,838
32240,830,838
32244,820,832
32250,815,833
32255,797,830
32259,797,830
32265,803,827
32270,785,824
32275,787,832
32280,771,826
32284,771,829
32290,767,824
32295,757,826
32299,759,827
32305,759,818
32310,742,822
32314,751,821
32320,755,818
32325,752,814
32330,757,814
32335,751,807
32340,746,808
32345,750,814
32350,756,806
32354,758,805
32360,763,801
32365,776,800
32369,779,799
32375,780,791
32380,781,791
32384,794,793
32390,803,789
32395,807,785
32400,824,779
32405,822,779
32409,839,779
32415,851,774
32420,856,765
32424,863,761
32430,881,763
32435,892,765
32439,906,756
32445,910,755
32450,929,751
32455,943,745
32460,959,740
32465,957,745
32470,974,736
32475,983,734
32479,1000,736
32485,1020,731
32490,1013,725
32494,1036,729
32500,1040,727
32505,1058,727
32509,1075,713
32515,1085,713
32520,1084,718
32525,1093,713
32530,1109,706
32534,1115,713
32540,1126,708
32545,1129,716
32549,1129,713
32555,1148,707
32560,1146,714
32564,1158,711
32570,1158,704
32575,1169,712
32580,1182,714
32585,1173,709
32590,1166,715
32595,1182,713
32600,1184,722
32604,1193,721
32610,1184,717
32615,1192,726
32619,1185,731
32625,1186,735
32630,1186,736
32634,1179,738
32640,1188,740
32645,1181,746
32650,1186,749
32655,1181,748
32659,1188,763
32665,1177,765
32670,1171,771
32674,1171,776
32680,1174,776
32685,1162,781
32689,1169,784
32695,1160,786
32700,1150,789
32705,1154,797
32710,1146,795
32715,1139,806
32720,1139,814
32725,1138,812
32729,1134,812
32735,1133,818
32740,1137,824
32744,1130,826
32750,1126,836
32755,1120,837
32759,1112,843
32765,1109,841
32770,1115,847
32775,1109,850
32780,1105,851
32785,1105,851
32790,1098,856
32795,1098,853
32800,1089,860
32805,1094,861
32810,1093,861
32815,1098,862
32820,1088,863
32825,1087,862
32830,1085,869
32835,1080,870
32840,1083,869
32845,1083,865
32850,1075,867
32855,1070,872
32860,1072,864
32865,1072,866
32870,1062,865
32875,1047,868
32880,1059,864
32885,1061,865
32890,1040,863
32895,1044,862
32900,1038,860
32905,1030,862
32910,1032,858
32915,1021,863
32920,1011,859
32925,1013,852
32930,1004,854
32935,998,851
32940,988,854
32945,985,852
32950,976,852
32955,966,845
32960,960,848
32965,952,846
32970,943,844
32975,932,843
32980,920,847
32985,914,839
32990,906,836
32995,895,836
33000,879,838
33005,884,840
33010,872,833
33015,865,843
33020,852,835
33025,835,832
33030,846,833
33035,825,831
33040,825,833
33045,810,832
33050,796,835
33055,796,831
33060,780,827
33065,791,830
33070,780,829
33075,778,829
33080,767,823
33085,761,830
33090,773,820
33095,762,819
33100,756,821
33105,757,826
33110,745,823
33115,758,824
33120,747,815
33125,750,815
33130,751,818
33135,754,806
33140,753,806
33145,759,808
33150,760,809
33155,763,797
33160,761,802
33165,772,799
33170,775,792
33175,793,794
33180,803,794
33185,808,787
33190,819,784
33195,813,780
33200,836,782
33205,844,770
33210,855,772
33215,858,759
33220,878,772
33225,880,761
33230,894,756
33235,909,754
33240,920,748
33245,946,749
33250,943,745
33255,964,741
33260,969,743
33265,978,737
33270,995,740
33275,1004,736
33280,1009,727
33285,1034,726
33290,1042,717
33295,1053,723
33300,1056,718
33305,1074,725
33310,1083,717
33315,1087,715
33320,1104,711
33325,1116,704
33330,1119,712
33335,1137,708
33340,1127,713
33345,1138,705
33350,1147,709
33355,1157,708
33360,1149,715
33365,1175,712
33370,1173,713
33375,1172,719
33380,1175,713
33385,1174,718
33390,1178,720
33395,1189,717
33400,1194,723
33405,1194,727
33410,1195,731
33415,1179,732
33420,1183,737
33425,1182,739
33430,1187,743
33435,1186,744
33440,1177,744
33445,1187,755
33450,1176,752
33455,1171,763
33460,1181,765
33465,1163,774
33470,1166,777
33475,1172,780
33480,1161,782
33485,1161,787
33490,1152,788
33495,1157,794
33500,1149,795
33505,1146,807
33510,1143,809
33515,1140,812
33520,1138,813
33525,1140,823
33530,1130,823
33535,1127,825
33540,1110,832
33545,1115,836
33550,1118,835
33555,1112,842
33560,1114,844
33565,1104,847
33570,1113,850
33575,1110,849
33580,1113,851
33585,1098,855
33590,1099,863
33595,1105,862
33600,1086,860
33605,1095,857
33610,1096,862
33615,1095,867
33620,1083,867
33625,1082,864
33630,1075,870
33635,1074,866
33640,1070,869
33645,1068,869
33650,1073,870
33655,1065,862
33660,1066,862
33665,1052,869
33670,1055,855
33675,1054,863
33680,1051,859
33685,1048,867
33690,1035,863
33695,1036,862
33700,1032,864
33705,1031,857
33710,1015,855
33715,1009,853
33720,1003,853
33725,1000,854
33730,991,851
33735,982,851
33740,976,851
33745,965,845
33750,964,848
33755,954,846
33760,935,844
33765,941,846
33770,929,848
33775,913,843
33780,914,838
33785,896,841
33790,896,843
33795,887,839
33800,867,839
33805,864,838
33810,856,835
33815,848,836
33820,841,837
33825,827,831
33830,819,835
33835,808,835
33840,804,828
33845,801,832
33850,798,829
33855,792,830
33860,775,831
33865,779,831
33870,774,827
33875,760,826
33880,764,825
33885,756,821
33890,750,820
33895,748,816
33900,743,821
33905,739,819
33910,751,817
33915,746,813
33920,750,816
33925,749,806
33930,751,816
33935,765,810
33940,765,801
33945,767,804
33950,764,799
33955,774,801
33960,779,793
33965,790,797
33970,800,789
33975,800,790
33980,813,784
33985,807,780
33990,827,780
33995,846,774
34000,839,769
34005,854,766
34010,861,768
34015,881,762
34020,899,762
34025,896,761
34030,912,757
34035,927,751
34040,954,745
34045,948,744
34050,964,737
34055,963,737
34060,988,732
34065,998,729
34070,1003,728
34075,1017,725
34080,1033,726
34085,1047,725
34090,1061,722
34095,1064,717
34100,1082,714
34105,1098,711
34110,1099,710
34115,1103,708
34120,1113,711
34125,1121,711
34130,1137,706
34135,1145,706
34140,1147,706
34145,1141,708
34150,1156,715
34155,1172,706
34160,1164,713
34165,1162,709
34170,1176,708
34175,1179,719
34180,1174,721
34185,1185,717
34190,1183,722
34195,1187,722
34200,1190,725
34205,1187,732
34210,1182,734
34215,1189,741
34220,1188,735
34225,1185,744
34230,1186,743
34235,1178,749
34240,1185,753
34245,1177,758
34250,1185,763
34255,1168,765
34260,1174,766
34265,1159,773
34270,1157,782
34275,1168,780
34280,1159,791
34285,1152,795
34290,1155,797
34295,1143,798
34300,1149,809
34305,1134,808
34310,1131,811
34315,1119,821
34320,1129,816
34325,1123,827
34330,1129,832
34335,1122,840
34340,1106,835
34345,1112,843
34350,1116,846
34355,1107,847
34360,1113,846
34365,1112,854
34370,1100,855
34375,1101,855
34380,1107,854
34385,1090,857
34390,1090,858
34395,1100,865
34400,1086,866
34405,1083,858
34410,1095,869
34415,1091,862
34420,1089,869
34425,1073,867
34430,1077,865
34435,1078,871
34440,1074,867
34445,1074,870
34450,1058,864
34455,1060,860
34460,1056,868
34465,1050,864
34470,1049,859
34475,1038,864
34480,1045,867
34485,1042,865
34490,1035,862
34495,1032,858
34500,1027,863
34505,1009,857
34510,1007,856
34515,1009,854
34520,991,848
34525,987,852
34530,984,851
34535,978,852
34540,958,847
34545,962,849
34550,958,848
34555,939,846
34560,938,845
34565,922,843
34570,906,845
34575,910,839
34580,898,836
34585,887,839
34590,876,840
34595,869,835
34600,855,835
34605,841,835
34610,844,834
34615,841,830
34620,813,832
34625,827,830
34630,802,833
34635,807,833
34640,794,827
34645,785,830
34650,775,829
34655,769,830
34660,767,829
34665,761,826
34670,757,825
34675,758,823
34680,757,822
34685,754,819
34690,750,821
34695,746,818
34700,745,814
34705,746,815
34710,753,812
34715,746,813
34720,747,813
34725,751,808
34730,753,801
34735,760,809
34740,763,800
34745,772,796
34750,783,805
34755,787,795
34760,797,791
34765,793,789
34770,809,792
34775,813,783
34780,829,781
34785,833,777
34790,838,776
34795,852,772
34800,859,767
34805,880,761
34810,882,759
34815,900,762
34820,911,760
34825,918,755
34830,935,748
34835,956,750
34840,954,736
34845,973,742
34850,984,735
34855,1001,737
34860,1013,731
34865,1009,727
34870,1036,726
34875,1043,720
34880,1053,724
34885,1062,718
34890,1074,720
34895,1079,718
34900,1094,715
34905,1106,710
34910,1123,706
34915,1129,707
34920,1122,708
34925,1135,714
34930,1140,711
34935,1147,713
34940,1159,713
34945,1164,716
34950,1166,709
34955,1177,713
34960,1173,715
34965,1182,722
34970,1184,715
34975,1184,723
34980,1188,723
34985,1186,727
34990,1187,724
34995,1189,730
35000,1193,728
35005,1190,735
35010,1185,736
35015,1186,740
35020,1184,745
35025,1191,747
35030,1185,752
35035,1174,760
35040,1178,759
35045,1179,764
35050,1177,772
35055,1173,769
35060,1163,778
35065,1165,782
35070,1159,786
35075,1152,792
35080,1154,796
35085,1142,805
35090,1144,805
35095,1144,811
35100,1143,815
35105,1135,816
35110,1138,815
35115,1125,828
35120,1128,829
35125,1128,830
35130,1119,832
35135,1120,833
35140,1117,847
35145,1107,843
35150,1114,847
35155,1101,850
35160,1100,850
35165,1103,851
35170,1102,850
35175,1100,861
35180,1094,856
35185,1094,854
35190,1084,860
35195,1085,859
35200,1084,860
35205,1087,865
35210,1088,866
35215,1079,867
35220,1076,865
35225,1075,865
35230,1076,866
35235,1068,867
35240,1076,863
35245,1069,865
35250,1067,867
35255,1056,862
35260,1055,862
35265,1055,863
35270,1045,864
35275,1030,861
35280,1038,864
35285,1031,857
35290,1013,854
35295,1019,860
35300,1015,860
35305,1002,855
35310,1001,856
35315,985,850
35320,983,846
35325,973,851
35330,973,849
35335,960,846
35340,955,846
35345,945,846
35350,938,843
35355,926,842
35360,925,840
35365,906,844
35370,903,838
35375,888,839
35380,879,842
35385,880,832
35390,869,836
35395,850,836
35400,848,832
35405,836,835
35410,833,829
35415,820,832
35420,809,833
35425,811,827
35430,804,829
35435,794,829
35440,784,828
35445,774,827
35450,780,826
35455,766,825
35460,766,825
35465,755,822
35470,754,821
35475,755,823
35480,746,817
35485,746,814
35490,744,818
35495,736,815
35500,755,814
35505,746,820
35510,751,810
35515,751,808
35520,760,808
35525,750,807
35530,759,806
35535,782,798
35540,776,798
35545,765,798
35550,789,789
35555,784,791
35560,799,785
35565,807,788
35570,813,783
35575,827,781
35580,841,774
35585,846,769
35590,867,772
35595,863,765
35600,886,761
35605,886,763
35610,904,755
35615,914,754
35620,922,749
35625,936,749
35630,955,747
35635,959,737
35640,975,732
35645,993,736
35650,997,737
35655,1012,732
35660,1028,727
35665,1041,729
35670,1040,724
35675,1061,721
35680,1072,721
35685,1082,715
35690,1085,713
35695,1097,720
35700,1106,707
35705,1105,714
35710,1114,709
35715,1129,712
35720,1138,712
35725,1151,709
35730,1149,712
35735,1157,707
35740,1166,714
35745,1165,712
35750,1173,717
35755,1169,718
35760,1179,719
35765,1185,716
35770,1197,718
35775,1194,721
35780,1187,721
35785,1180,731
35790,1188,726
35795,1189,735
35800,1194,731
35805,1177,735
35810,1181,744
35815,1175,745
35820,1186,754
35825,1184,752
35830,1179,762
35835,1173,758
35840,1179,764
35845,1176,768
35850,1166,778
35855,1157,783
35860,1163,788
35865,1161,785
35870,1154,790
35875,1150,793
35880,1147,794
35885,1151,807
35890,1147,807
35895,1142,816
35900,1126,813
35905,1128,820
35910,1126,821
35915,1120,827
35920,1118,832
35925,1117,836
35930,1112,843
35935,1111,842
35940,1103,840
35945,1117,849
35950,1106,849
35955,1104,849
35960,1106,852
35965,1097,856
35970,1089,858
35975,1087,862
35980,1097,862
35985,1079,863
35990,1088,866
35995,1078,867
36000,1083,866
36005,1083,861
36010,1076,865
36015,1083,869
36020,1078,870
36025,1077,866
36030,1063,863
36035,1071,870
36040,1066,866
36045,1055,863
36050,1059,867
36055,1049,862
36060,1050,861
36065,1040,858
36070,1035,860
36075,1027,857
36080,1027,863
36085,1020,857
36090,1022,853
36095,1007,858
36100,1003,855
36105,999,855
36110,1003,851
36115,980,851
36120,979,850
36125,967,852
36130,948,845
36135,949,846
36140,942,843
36145,938,848
36150,921,842
36155,922,848
36160,914,845
36165,902,839
36170,893,843
36175,888,837
36180,870,837
36185,859,836
36190,858,834
36195,843,837
36200,841,835
36205,825,832
36210,814,836
36215,800,826
36220,808,830
36225,800,829
36230,790,825
36235,787,830
36240,778,826
36245,774,827
36250,766,826
36255,760,824
36260,766,820
36265,757,825
36270,747,822
36275,754,821
36280,753,820
36285,741,820
36290,735,820
36295,744,821
36300,747,808
36305,756,810
36310,759,811
36315,754,808
36320,763,806
36325,760,806
36330,769,796
36335,775,801
36340,780,800
36345,792,795
36350,797,786
36355,807,785
36360,811,783
36365,822,783
36370,826,782
36375,838,775
36380,848,773
36385,873,768
36390,889,762
36395,890,763
36400,900,762
36405,904,755
36410,923,749
36415,934,749
36420,953,750
36425,959,739
36430,964,740
36435,987,738
36440,991,742
36445,1010,733
36450,1024,725
36455,1027,728
36460,1038,721
36465,1054,722
36470,1063,721
36475,1066,719
36480,1072,714
36485,1103,714
36490,1108,715
36495,1112,717
36500,1113,717
36505,1127,712
36510,1131,708
36515,1147,712
36520,1142,710
36525,1148,713
36530,1159,711
36535,1163,716
36540,1177,709
36545,1171,710
36550,1172,714
36555,1185,718
36560,1185,720
36565,1185,721
36570,1184,719
36575,1187,729
36580,1193,726
36585,1191,734
36590,1180,731
36595,1182,739
36600,1188,739
36605,1186,742
36610,1185,745
36615,1179,754
36620,1196,760
36625,1182,761
36630,1176,767
36635,1162,766
36640,1170,774
36645,1155,773
36650,1157,779
36655,1156,785
36660,1154,788
36665,1149,796
36670,1158,800
36675,1154,804
36680,1137,807
36685,1132,809
36690,1133,822
36695,1136,822
36700,1138,821
36705,1127,829
36710,1122,829
36715,1122,835
36720,1116,841
36725,1123,845
36730,1112,843
36735,1115,852
36740,1110,848
36745,1110,852
36750,1102,854
36755,1101,856
36760,1093,854
36765,1091,859
36770,1099,865
36775,1093,866
36780,1087,869
36785,1088,862
36790,1091,865
36795,1090,866
36800,1081,868
36805,1075,868
36810,1081,866
36815,1077,866
36820,1066,870
36825,1063,868
36830,1065,862
36835,1066,871
36840,1059,865
36845,1056,863
36850,1046,866
36855,1044,861
36860,1046,857
36865,1036,859
36870,1028,853
36875,1015,862
36880,1019,859
36885,1014,859
36890,1009,852
36895,994,856
36900,983,853
36905,984,855
36910,970,849
36915,972,848
36920,965,844
36925,944,849
36930,951,850
36935,938,845
36940,922,842
36945,923,845
36950,912,840
36955,909,838
36960,885,838
36965,887,838
36970,869,844
36975,871,834
36980,856,832
36985,849,839
36990,840,836
36995,833,832
37000,821,831
37005,808,830
37010,805,836
37015,806,829
37020,794,830
37025,783,831
37030,780,830
37035,778,831
37040,772,822
37045,759,821
37050,768,825
37055,753,826
37060,755,818
37065,755,820
37070,748,817
37075,746,821
37080,750,814
37085,745,811
37090,745,815
37095,750,807
37100,756,811
37105,754,804
37110,767,807
37115,764,802
37120,773,799
37125,760,805
37130,779,796
37135,783,792
37140,786,784
37145,794,790
37150,813,783
37155,823,779
37160,833,780
37165,843,775
37170,854,771
37175,858,767
37180,874,765
37185,873,761
37190,893,757
37195,897,755
37200,913,757
37205,924,744
37210,947,752
37215,950,745
37220,957,742
37225,976,742
37230,988,736
37235,999,734
37240,1013,728
37245,1033,726
37250,1035,716
37255,1040,725
37260,1058,715
37265,1060,722
37270,1085,713
37275,1077,712
37280,1096,710
37285,1107,712
37290,1117,717
37295,1117,706
37300,1126,709
37305,1134,707
37310,1141,712
37315,1152,709
37320,1161,710
37325,1161,711
37330,1171,715
37335,1171,713
37340,1176,715
37345,1180,713
37350,1183,714
37355,1186,720
37360,1183,717
37365,1181,719
37370,1177,719
37375,1183,728
37380,1185,733
37385,1186,737
37390,1180,739
37395,1186,740
37400,1180,743
37405,1175,743
37410,1178,753
37415,1175,758
37420,1176,759
37425,1174,763
37430,1174,769
37435,1164,770
37440,1165,780
37445,1163,783
37450,1157,792
37455,1154,788
37460,1152,798
37465,1149,797
37470,1143,800
37475,1137,808
37480,1136,812
37485,1132,818
37490,1127,822
37495,1128,826
37500,1123,828
37505,1120,833
37510,1112,837
37515,1118,838
37520,1116,840
37525,1110,843
37530,1104,854
37535,1109,848
37540,1108,857
37545,1099,858
37550,1097,860
37555,1105,858
37560,1092,863
37565,1097,861
37570,1089,865
37575,1090,861
37580,1094,867
37585,1084,865
37590,1085,869
37595,1082,867
37600,1078,864
37605,1079,869
37610,1067,865
37615,1072,861
37620,1059,864
37625,1061,862
37630,1056,865
37635,1057,868
37640,1050,867
37645,1043,863
37650,1043,866
37655,1038,859
37660,1038,862
37665,1023,859
37670,1029,854
37675,1006,857
37680,1021,858
37685,996,853
37690,1001,854
37695,983,855
37700,992,848
37705,969,852
37710,965,849
37715,958,849
37720,954,846
37725,939,847
37730,927,842
37735,927,841
37740,916,844
37745,905,840
37750,894,839
37755,891,843
37760,876,839
37765,878,833
37770,862,835
37775,850,832
37780,851,838
37785,839,834
37790,830,833
37795,814,831
37800,817,835
37805,801,830
37810,801,830
37815,788,827
37820,777,826
37825,777,826
37830,782,831
37835,771,821
37840,770,823
37845,756,824
37850,763,821
37855,756,823
37860,753,816
37865,751,817
37870,744,820
37875,747,815
37880,742,812
37885,742,811
37890,755,810
37895,750,808
37900,757,803
37905,760,801
37910,762,798
37915,765,799
37920,778,797
37925,782,798
37930,799,787
37935,798,787
37940,810,784
37945,815,788
37950,827,780
37955,832,781
37960,838,775
37965,848,772
37970,864,763
37975,872,767
37980,890,761
37985,886,757
37990,904,753
37995,923,749
38000,925,754
38005,944,743
38010,963,741
38015,976,745
38020,986,734
38025,992,741
38030,1001,725
38035,1019,726
38040,1031,734
38045,1035,724
38050,1054,720
38055,1057,721
38060,1071,723
38065,1087,717
38070,1095,716
38075,1104,715
38080,1120,717
38085,1116,711
38090,1133,713
38095,1142,708
38100,1144,714
38105,1148,704
38110,1152,710
38115,1150,710
38120,1168,709
38125,1177,713
38130,1164,714
38135,1178,715
38140,1182,716
38145,1175,717
38150,1179,719
38155,1188,722
38160,1196,727
38165,1184,731
38170,1183,736
38175,1176,733
38180,1184,735
38185,1183,744
38190,1182,745
38195,1184,751
38200,1173,757
38205,1176,754
38210,1174,759
38215,1175,767
38220,1176,770
38225,1160,777
38230,1163,781
38235,1157,785
38240,1153,792
38245,1158,792
38250,1156,790
38255,1151,802
38260,1149,805
38265,1154,810
38270,1141,807
38275,1136,809
38280,1133,817
38285,1134,827
38290,1123,826
38295,1117,826
38300,1124,839
38305,1129,838
38310,1113,840
38315,1107,842
38320,1117,854
38325,1114,848
38330,1094,855
38335,1096,850
38340,1091,861
38345,1099,854
38350,1098,863
38355,1094,860
38360,1088,861
38365,1088,858
38370,1092,862
38375,1084,871
38380,1089,862
38385,1080,865
38390,1075,864
38395,1065,868
38400,1074,864
38405,1070,866
38410,1071,869
38415,1059,866
38420,1067,865
38425,1055,865
38430,1056,866
38435,1050,865
38440,1059,859
38445,1042,861
38450,1034,860
38455,1039,863
38460,1022,857
38465,1018,857
38470,1018,854
38475,1007,855
38480,1000,848
38485,991,853
38490,988,854
38495,970,853
38500,980,852
38505,951,847
38510,962,845
38515,937,843
38520,941,847
38525,935,848
38530,917,845
38535,911,843
38540,903,835
38545,885,842
38550,879,840
38555,879,841
38560,871,840
38565,857,835
38570,846,836
38575,829,838
38580,836,832
38585,819,830
38590,819,837
38595,808,833
38600,811,830
38605,798,830
38610,781,832
38615,786,823
38620,772,824
38625,764,824
38630,764,819
38635,765,826
38640,756,825
38645,757,827
38650,746,820
38655,742,822
38660,746,816
38665,741,816
38670,751,813
38675,753,814
38680,747,814
38685,755,812
38690,752,812
38695,760,803
38700,765,802
38705,758,804
38710,766,795
38715,776,794
38720,786,789
38725,784,792
38730,794,792
38735,822,785
38740,808,778
38745,827,777
38750,836,770
38755,846,769
38760,850,773
38765,866,762
38770,875,765
38775,895,758
38780,902,764
38785,918,751
38790,920,752
38795,938,746
38800,951,741
38805,964,739
38810,974,736
38815,978,739
38820,1006,728
38825,1015,724
38830,1019,730
38835,1032,724
38840,1043,724
38845,1049,718
38850,1069,715
38855,1080,720
38860,1095,715
38865,1096,716
38870,1109,719
38875,1121,708
38880,1131,711
38885,1126,710
38890,1142,706
38895,1152,706
38900,1152,706
38905,1164,709
38910,1168,714
38915,1171,710
38920,1172,709
38925,1175,710
38930,1175,718
38935,1181,723
38940,1183,722
38945,1187,724
38950,1185,727
38955,1188,724
38960,1191,729
38965,1184,731
38970,1186,735
38975,1192,738
38980,1185,740
38985,1183,747
38990,1192,743
38995,1176,755
39000,1173,757
39005,1175,762
39010,1176,772
39015,1164,771
39020,1165,773
39025,1163,779
39030,1150,782
39035,1150,788
39040,1144,792
39045,1149,797
39050,1147,797
39055,1142,809
39060,1140,810
39065,1122,810
39070,1135,819
39075,1128,819
39080,1130,827
39085,1124,825
39090,1128,832
39095,1115,838
39100,1116,839
39105,1132,838
39110,1110,844
39115,1110,852
39120,1111,853
39125,1103,853
39130,1103,857
39135,1097,859
39140,1099,864
39145,1097,859
39150,1098,861
39155,1096,860
39160,1091,863
39165,1094,867
39170,1092,861
39175,1080,868
39180,1081,866
39185,1079,863
39190,1078,868
39195,1080,866
39200,1071,867
39205,1066,866
39210,1062,865
39215,1061,861
39220,1048,864
39225,1050,866
39230,1055,859
39235,1049,862
39240,1037,855
39245,1023,859
39250,1028,860
39255,1028,860
39260,1014,860
39265,1014,856
39270,1004,852
39275,1008,855
39280,994,852
39285,976,849
39290,976,848
39295,968,845
39300,957,841
39305,945,842
39310,938,845
39315,930,846
39320,923,846
39325,908,841
39330,906,838
39335,904,835
39340,884,840
39345,888,847
39350,865,839
39355,862,837
39360,862,838
39365,858,837
39370,830,839
39375,819,834
39380,818,830
39385,810,833
39390,800,835
39395,798,829
39400,793,831
39405,781,829
39410,780,825
39415,776,830
39420,762,828
39425,759,821
39430,753,822
39435,758,819
39440,754,824
39445,748,820
39450,741,816
39455,752,820
39460,749,815
39465,749,814
39470,752,810
39475,749,819
39480,750,810
39485,757,813
39490,751,804
39495,768,802
39500,765,799
39505,769,797
39510,779,800
39515,783,793
39520,798,782
39525,805,787
39530,812,781
39535,823,776
39540,832,776
39545,837,774
39550,857,772
39555,862,773
39560,874,766
39565,879,758
39570,890,757
39575,904,750
39580,916,751
39585,928,746
39590,938,745
39595,955,740
39600,965,737
39605,981,735
39610,996,734
39615,1003,730
39620,1021,733
39625,1026,724
39630,1035,727
39635,1049,719
39640,1061,722
39645,1076,716
39650,1081,717
39655,1095,712
39660,1107,712
39665,1113,710
39670,1128,707
39675,1128,708
39680,1132,711
39685,1145,712
39690,1155,710
39695,1153,713
39700,1159,715
39705,1170,710
39710,1163,717
39715,1170,713
39720,1181,708
39725,1187,716
39730,1181,719
39735,1180,722
39740,1192,727
39745,1185,720
39750,1189,728
39755,1186,729
39760,1182,736
39765,1191,739
39770,1186,747
39775,1183,746
39780,1178,744
39785,1177,745
39790,1187,760
39795,1171,760
39800,1170,767
39805,1179,765
39810,1173,775
39815,1166,777
39820,1166,784
39825,1158,784
39830,1147,788
39835,1152,793
39840,1149,799
39845,1146,800
39850,1145,802
39855,1145,812
39860,1128,816
39865,1131,821
39870,1131,826
39875,1135,824
39880,1122,830
39885,1121,838
39890,1115,839
39895,1109,838
39900,1108,841
39905,1110,843
39910,1102,850
39915,1111,852
39920,1103,854
39925,1102,858
39930,1097,856
39935,1100,858
39940,1099,858
39945,1089,863
39950,1091,860
39955,1087,864
39960,1092,868
39965,1084,865
39970,1076,868
39975,1073,862
39980,1071,871
39985,1080,863
39990,1069,867
39995,1062,863
40000,1064,865
40005,1058,866
40010,1057,868
40015,1047,858
40020,1042,864
40025,1051,864
40030,1037,856
40035,1048,857
40040,1033,858
40045,1027,857
40050,1020,855
40055,1006,850
40060,1005,849
40065,1005,852
40070,989,850
40075,994,852
40080,977,853
40085,980,849
40090,959,848
40095,957,849
40100,947,846
40105,940,843
40110,921,838
40115,918,836
40120,905,846
40125,911,843
40130,907,845
40135,887,844
40140,873,844
40145,868,839
40150,857,838
40155,849,832
40160,847,830
40165,824,831
40170,822,828
40175,815,828
40180,804,833
40185,799,828
40190,788,825
40195,786,831
40200,788,826
40205,785,829
40210,775,826
40215,764,824
40220,761,822
40225,747,824
40230,760,825
40235,745,822
40240,744,823
40245,744,815
40250,748,817
40255,744,818
40260,744,815
40265,741,812
40270,752,811
40275,772,812
40280,757,807
40285,758,799
40290,763,804
40295,773,800
40300,791,792
40305,789,790
40310,785,792
40315,794,793
40320,817,784
40325,816,773
40330,822,778
40335,830,777
40340,854,769
40345,860,774
40350,867,764
40355,866,761
40360,892,758
40365,902,758
40370,906,755
40375,917,753
40380,938,751
40385,958,750
40390,957,744
40395,973,733
40400,988,738
40405,986,736
40410,997,730
40415,1019,730
40420,1034,726
40425,1050,730
40430,1053,717
40435,1065,719
40440,1077,714
40445,1083,717
40450,1101,709
40455,1105,713
40460,1104,712
40465,1124,708
40470,1133,713
40475,1142,713
40480,1146,716
40485,1169,707
40490,1153,709
40495,1163,708
40500,1166,716
40505,1166,713
40510,1175,712
40515,1187,719
40520,1187,717
40525,1182,721
40530,1189,722
40535,1180,725
40540,1184,731
40545,1189,727
40550,1188,735
40555,1180,740
40560,1192,741
40565,1187,746
40570,1183,743
40575,1189,748
40580,1187,748
40585,1183,757
40590,1166,763
40595,1178,770
40600,1173,771
40605,1151,769
40610,1164,779
40615,1155,780
40620,1163,786
40625,1152,793
40630,1150,796
40635,1153,804
40640,1146,809
40645,1144,811
40650,1142,810
40655,1139,811
40660,1131,818
40665,1120,830
40670,1119,828
40675,1125,836
40680,1117,832
40685,1121,838
40690,1108,842
40695,1110,846
40700,1108,848
40705,1104,852
40710,1094,848
40715,1106,852
40720,1095,859
40725,1102,864
40730,1096,862
40735,1087,863
40740,1088,866
40745,1092,867
40750,1082,867
40755,1074,864
40760,1083,870
40765,1072,870
40770,1072,868
40775,1075,867
40780,1070,864
40785,1068,871
40790,1073,868
40795,1068,868
40800,1061,867
40805,1051,867
40810,1055,862
40815,1053,870
40820,1043,859
40825,1028,863
40830,1036,858
40835,1043,859
40840,1018,861
40845,1016,856
40850,999,852
40855,1006,856
40860,1000,857
40865,983,853
40870,980,853
40875,974,852
40880,964,848
40885,958,849
40890,950,844
40895,939,852
40900,932,838
40905,921,845
40910,919,844
40915,909,840
40920,896,833
40925,889,837
40930,875,836
40935,883,839
40940,868,837
40945,858,839
40950,845,837
40955,842,833
40960,831,833
40965,812,833
40970,806,835
40975,813,836
40980,792,831
40985,792,824
40990,786,825
40995,776,829
