timestamp_ms,ir_finger,ir_toe
0,1043,700
5,1066,705
10,1068,706
15,1080,699
20,1092,697
25,1100,699
30,1112,697
35,1114,695
40,1132,701
45,1137,696
50,1142,703
55,1149,699
60,1158,698
65,1167,705
70,1169,712
75,1175,713
80,1176,710
85,1172,720
90,1181,724
95,1172,720
100,1187,724
105,1183,731
110,1182,737
115,1176,740
120,1193,744
125,1181,752
130,1183,751
135,1180,753
140,1185,760
145,1173,772
150,1177,774
155,1167,781
160,1157,788
165,1152,787
170,1167,794
175,1166,798
180,1152,808
185,1154,812
190,1148,820
195,1145,822
200,1139,836
205,1123,834
210,1132,834
215,1122,840
220,1129,848
225,1119,848
230,1117,849
235,1118,857
240,1104,857
245,1116,864
250,1105,865
255,1100,866
260,1095,867
265,1103,872
270,1104,875
275,1098,877
280,1096,873
285,1097,873
290,1083,871
295,1093,873
300,1081,868
305,1079,874
310,1078,873
315,1072,875
320,1071,877
325,1075,873
330,1062,875
335,1055,872
340,1060,872
345,1049,867
350,1037,862
355,1032,862
360,1031,864
365,1019,862
370,1036,859
375,1015,855
380,1008,863
385,1003,861
390,993,853
395,988,848
400,972,849
405,969,846
410,958,844
415,945,847
420,939,850
425,927,848
430,913,840
435,898,846
440,899,844
445,886,848
450,877,839
455,866,837
460,853,837
465,852,834
470,832,834
475,828,831
480,822,834
485,810,835
490,799,832
495,792,829
500,786,831
505,788,827
510,767,827
515,768,824
520,768,827
525,759,821
530,744,816
535,747,818
540,757,816
545,747,815
550,750,816
555,748,808
560,753,808
565,748,807
570,754,802
575,747,796
580,762,793
585,762,793
590,766,788
595,776,788
600,797,782
605,792,777
610,806,774
615,817,765
620,836,769
625,833,761
630,846,756
635,866,752
640,868,748
645,888,751
650,905,746
655,911,734
660,923,734
665,933,731
670,957,722
675,959,726
680,994,724
685,993,719
690,1013,712
695,1025,708
700,1034,706
705,1043,709
710,1064,708
715,1074,706
720,1091,704
725,1097,700
730,1108,696
735,1113,698
740,1132,697
745,1134,701
750,1140,692
755,1140,699
760,1158,698
765,1159,702
770,1172,706
775,1169,707
780,1178,715
785,1184,707
790,1189,722
795,1183,719
800,1187,722
805,1179,724
810,1181,727
815,1191,737
820,1180,738
825,1187,739
830,1189,752
835,1178,758
840,1181,757
845,1180,766
850,1178,773
855,1170,772
860,1166,779
865,1169,787
870,1156,793
875,1152,798
880,1164,806
885,1154,809
890,1148,813
895,1142,819
900,1143,827
905,1130,832
910,1129,830
915,1129,841
920,1119,843
925,1127,846
930,1115,847
935,1117,856
940,1116,848
945,1110,859
950,1121,863
955,1102,868
960,1094,864
965,1104,863
970,1102,872
975,1096,874
980,1090,871
985,1086,872
990,1084,869
995,1083,874
1000,1092,877
1004,1080,880
1010,1068,876
1014,1080,880
1020,1077,870
1025,1067,873
1030,1061,869
1035,1060,871
1040,1060,871
1045,1049,869
1050,1044,869
1055,1044,869
1060,1037,868
1065,1035,857
1070,1022,867
1075,1020,859
1080,1016,857
1085,1007,853
1090,995,859
1095,997,856
1100,983,854
1105,960,851
1110,962,852
1115,956,849
1120,945,848
1125,940,842
1130,926,847
1135,914,842
1140,904,846
1145,888,839
1150,889,840
1155,871,842
1160,875,840
1165,856,841
1170,839,837
1175,830,836
1180,816,834
1185,813,829
1190,799,836
1195,799,831
1200,789,830
1205,776,836
1210,776,826
1215,772,829
1220,769,830
1225,759,825
1230,747,822
1235,763,820
1240,745,819
1245,749,811
1250,751,814
1255,740,814
1260,747,810
1265,756,806
1270,755,806
1275,759,802
1280,751,799
1285,763,794
1290,774,792
1295,775,781
1300,788,781
1305,794,778
1310,800,776
1315,810,775
1320,813,765
1325,818,764
1330,837,757
1335,860,749
1340,874,754
1345,885,748
1350,896,750
1355,899,745
1360,925,733
1365,936,734
1370,937,729
1375,961,727
1380,974,721
1385,981,718
1390,1000,716
1395,1014,711
1400,1035,711
1405,1045,706
1410,1052,709
1415,1050,705
1420,1078,702
1425,1090,705
1430,1100,699
1435,1111,705
1440,1122,699
1445,1130,702
1450,1139,703
1455,1143,691
1460,1155,696
1465,1157,702
1470,1168,702
1475,1165,704
1480,1170,714
1485,1184,711
1490,1184,714
1495,1190,722
1500,1193,717
1505,1186,723
1510,1189,730
1515,1186,725
1520,1186,735
1525,1172,741
1530,1184,742
1535,1181,755
1540,1186,762
1545,1177,766
1550,1178,768
1555,1182,781
1560,1172,773
1565,1173,783
1570,1168,792
1575,1157,805
1580,1160,803
1585,1154,809
1590,1151,809
1595,1149,819
1600,1139,822
1605,1137,823
1610,1145,833
1615,1133,833
1620,1115,841
1625,1125,842
1630,1121,847
1635,1122,854
1640,1106,852
1645,1107,856
1650,1113,859
1655,1103,866
1660,1105,866
1665,1108,871
1670,1094,871
1675,1096,871
1680,1099,873
1685,1100,875
1690,1085,868
1695,1094,869
1700,1080,879
1705,1077,875
1710,1078,879
1715,1078,868
1720,1071,872
1725,1062,877
1730,1064,863
1735,1063,869
1740,1066,868
1745,1049,867
1750,1049,873
1755,1041,869
1760,1040,862
1765,1035,865
1770,1022,866
1775,1012,857
1780,1025,859
1785,1007,857
1790,999,858
1795,998,859
1800,992,857
1805,969,852
1810,969,848
1815,945,843
1820,943,848
1825,938,847
1830,934,848
1835,926,844
1840,905,840
1845,900,844
1850,892,839
1855,871,841
1860,873,839
1865,862,834
1870,847,839
1875,839,839
1880,831,832
1885,820,834
1890,805,833
1895,810,833
1900,796,831
1905,789,830
1910,775,831
1915,772,831
1920,767,825
1925,766,820
1930,756,824
1935,766,818
1940,754,816
1945,759,816
1950,750,818
1955,737,814
1960,746,806
1965,750,809
1970,738,807
1975,748,806
1980,747,804
1985,762,801
1990,767,797
1995,773,786
2000,779,786
2005,786,778
2009,799,779
2015,811,774
2020,810,772
2025,829,767
2029,834,764
2035,846,756
2040,870,755
2045,874,751
2050,884,749
2055,898,745
2060,921,737
2065,929,733
2070,950,732
2075,958,734
2080,966,725
2085,973,723
2090,996,720
2095,1011,716
2100,1031,710
2105,1043,707
2110,1040,705
2115,1051,706
2120,1072,701
2125,1076,696
2130,1092,704
2135,1109,696
2140,1114,697
2145,1117,696
2150,1130,700
2155,1141,702
2160,1163,700
2165,1148,699
2170,1168,704
2175,1163,709
2180,1178,708
2185,1172,707
2190,1175,716
2195,1176,713
2200,1192,716
2205,1178,721
2210,1189,725
2215,1184,732
2220,1181,731
2225,1192,741
2230,1183,747
2235,1188,751
2240,1188,757
2245,1189,758
2250,1176,762
2255,1176,772
2260,1176,773
2265,1170,781
2270,1172,788
2275,1153,792
2280,1156,800
2285,1162,807
2290,1151,808
2295,1150,810
2300,1145,819
2305,1137,817
2310,1143,827
2315,1134,837
2320,1125,840
2325,1131,844
2330,1120,846
2335,1121,854
2340,1117,855
2345,1116,859
2350,1117,858
2355,1104,860
2360,1102,866
2365,1101,867
2370,1091,870
2375,1096,869
2380,1092,875
2385,1096,873
2390,1091,874
2395,1088,873
2400,1096,879
2405,1088,872
2410,1074,876
2415,1070,873
2420,1064,877
2425,1074,871
2430,1066,873
2435,1067,867
2440,1057,871
2445,1054,871
2450,1054,868
2455,1040,868
2460,1037,866
2465,1043,866
2470,1029,865
2475,1025,862
2480,1022,862
2485,1011,860
2490,1003,859
2495,999,862
2500,990,856
2505,974,853
2510,977,848
2515,952,848
2520,959,846
2525,937,847
2530,935,843
2535,921,846
2540,919,848
2545,912,840
2550,893,840
2555,875,839
2560,873,838
2565,865,839
2570,853,838
2575,845,835
2580,836,832
2585,825,838
2590,813,841
2595,811,835
2600,803,836
2605,788,827
2610,775,826
2615,774,826
2620,772,826
2625,758,830
2630,769,823
2635,759,821
2640,747,822
2645,752,819
2650,746,818
2655,746,816
2660,754,808
2665,740,812
2670,748,808
2675,751,810
2680,755,804
2685,762,796
2690,769,795
2695,762,792
2700,778,787
2705,786,784
2710,790,782
2715,807,776
2720,818,777
2725,825,773
2730,824,767
2735,852,765
2740,856,753
2745,875,753
2750,881,755
2755,881,744
2760,914,743
2765,922,739
2770,925,734
2775,946,728
2780,960,723
2785,970,723
2790,979,716
2795,989,716
2800,1008,713
2805,1028,709
2810,1037,708
2815,1054,706
2820,1069,706
2825,1074,705
2830,1091,703
2835,1100,701
2840,1106,698
2845,1115,695
2850,1129,699
2855,1129,699
2860,1148,694
2865,1160,701
2870,1152,710
2875,1160,710
2880,1165,706
2885,1174,714
2890,1180,715
2895,1178,713
2900,1180,717
2905,1186,716
2910,1177,724
2915,1193,728
2920,1185,735
2925,1187,738
2930,1185,743
2935,1184,752
2940,1186,753
2945,1181,759
2950,1181,763
2955,1174,768
2960,1178,775
2965,1170,780
2970,1166,785
2975,1165,790
2980,1159,794
2985,1158,801
2990,1151,807
2995,1148,812
3000,1150,811
3005,1144,820
3010,1140,830
3015,1138,829
3020,1124,831
3025,1124,839
3030,1126,843
3035,1119,847
3040,1116,858
3045,1109,857
3050,1122,857
3055,1116,859
3060,1100,868
3065,1102,869
3070,1097,868
3075,1095,863
3080,1093,865
3085,1093,873
3090,1095,875
3095,1091,875
3100,1087,874
3105,1087,870
3110,1086,871
3115,1085,876
3120,1084,873
3125,1066,870
3130,1064,874
3135,1061,873
3140,1056,870
3145,1059,871
3150,1063,859
3155,1048,862
3160,1044,870
3165,1041,864
3170,1036,864
3175,1030,860
3180,1028,858
3185,1022,864
3190,1009,860
3195,997,854
3200,1000,853
3205,978,849
3210,980,851
3215,967,854
3220,955,847
3225,948,846
3230,937,847
3235,932,848
3240,917,845
3245,917,847
3250,898,839
3255,887,845
3260,872,839
3265,872,842
3270,861,835
3275,854,840
3280,843,836
3285,828,836
3290,818,833
3295,805,837
3300,808,830
3305,800,831
3310,791,830
3315,774,827
3320,773,827
3325,766,825
3330,764,821
3335,760,823
3340,753,825
3345,755,818
3350,754,821
3355,744,812
3360,747,813
3365,745,815
3370,752,809
3375,747,803
3380,748,802
3385,759,803
3390,758,793
3395,771,796
3400,775,791
3405,783,786
3410,784,784
3415,799,778
3420,809,776
3425,822,771
3430,828,768
3435,836,766
3440,847,757
3445,859,751
3450,872,753
3455,884,746
3460,903,742
3465,917,739
3470,925,733
3475,948,735
3480,949,733
3485,968,722
3490,983,721
3495,998,724
3500,1002,713
3505,1014,711
3510,1046,710
3515,1051,703
3520,1052,709
3525,1073,702
3530,1075,701
3535,1090,698
3540,1099,697
3545,1118,697
3550,1122,694
3555,1134,701
3560,1138,697
3565,1157,701
3570,1157,697
3575,1158,699
3580,1161,701
3585,1176,707
3590,1177,711
3595,1174,712
3600,1190,714
3605,1186,713
3610,1186,728
3615,1182,725
3620,1189,727
3625,1196,732
3630,1190,734
3635,1185,737
3640,1191,744
3645,1183,752
3650,1182,759
3655,1180,758
3660,1176,771
3665,1170,777
3670,1172,780
3675,1161,787
3680,1162,792
3685,1160,797
3690,1157,802
3695,1145,812
3700,1154,818
3705,1141,823
3710,1142,827
3715,1140,826
3720,1128,834
3725,1145,835
3730,1133,841
3735,1130,851
3740,1123,859
3745,1117,854
3750,1117,857
3755,1114,856
3760,1110,865
3765,1107,865
3770,1101,866
3775,1099,869
3780,1097,871
3785,1089,873
3790,1093,872
3795,1085,868
3800,1096,871
3805,1089,873
3810,1082,873
3815,1075,871
3820,1075,874
3825,1076,872
3830,1069,875
3835,1075,877
3840,1062,874
3845,1060,869
3850,1053,870
3855,1046,869
3860,1052,865
3865,1047,864
3870,1039,860
3875,1033,864
3880,1023,859
3885,1023,864
3890,1002,863
3895,1010,853
3900,994,856
3905,987,851
3910,985,852
3915,977,855
3920,965,846
3925,959,844
3930,951,851
3935,932,849
3940,927,847
3945,906,846
3950,893,845
3955,889,845
3960,874,841
3965,871,841
3970,860,841
3975,858,840
3980,836,835
3985,828,834
3990,833,835
3995,825,834
4000,809,829
4005,794,829
4010,786,829
4014,779,831
4019,783,832
4025,768,826
4030,767,824
4035,764,827
4040,760,821
4045,754,815
4050,753,820
4054,748,814
4059,744,813
4065,745,813
4070,747,812
4075,746,808
4080,757,808
4085,757,797
4090,761,800
4094,765,792
4100,770,794
4105,772,788
4110,781,783
4115,790,780
4120,802,775
4125,814,776
4130,813,774
4135,830,759
4140,844,755
4145,853,764
4150,876,751
4155,884,751
4160,892,747
4165,902,741
4170,909,738
4175,929,734
4180,946,726
4185,950,726
4190,969,719
4195,987,722
4200,999,719
4205,1015,712
4210,1026,710
4215,1037,707
4220,1049,708
4225,1060,703
4230,1077,700
4235,1084,703
4240,1094,697
4245,1112,698
4250,1125,699
4255,1127,695
4260,1133,697
4265,1146,696
4270,1150,702
4275,1165,698
4280,1159,703
4285,1164,706
4290,1166,712
4295,1175,710
4300,1185,715
4305,1194,716
4310,1181,721
4315,1190,722
4320,1191,726
4325,1188,731
4330,1188,738
4335,1179,736
4340,1182,746
4345,1186,752
4350,1182,759
4355,1182,763
4360,1182,765
4365,1175,774
4370,1171,782
4375,1171,782
4380,1168,794
4385,1159,790
4390,1171,799
4395,1154,804
4400,1159,811
4405,1145,816
4410,1145,821
4415,1145,828
4420,1134,833
4425,1128,839
4430,1130,837
4435,1119,841
4440,1121,847
4445,1111,854
4450,1116,852
4455,1108,854
4460,1105,862
4465,1101,859
4470,1102,865
4475,1095,870
4480,1094,870
4485,1101,867
4490,1093,869
4495,1090,869
4500,1089,873
4505,1083,873
4510,1093,871
4515,1079,873
4520,1079,877
4525,1071,876
4530,1066,875
4535,1067,874
4540,1065,880
4545,1072,875
4550,1063,874
4555,1050,870
4560,1051,872
4565,1052,871
4570,1037,868
4575,1040,861
4580,1031,863
4585,1016,863
4590,1016,864
4595,1004,858
4600,1002,854
4605,999,854
4610,983,850
4615,978,852
4620,963,853
4625,955,857
4630,953,851
4635,935,848
4640,919,841
4645,920,845
4650,919,842
4655,900,845
4660,891,839
4665,881,839
4670,869,840
4675,856,840
4680,851,836
4685,840,832
4690,832,833
4695,823,831
4700,825,838
4705,800,835
4710,799,829
4715,789,824
4720,778,825
4725,773,833
4730,761,829
4735,762,821
4740,763,826
4745,754,825
4750,754,815
4755,741,819
4760,742,813
4765,749,813
4770,744,810
4775,745,810
4780,752,804
4785,756,807
4790,754,798
4795,759,797
4800,777,795
4805,774,788
4810,780,786
4815,774,783
4820,791,782
4825,805,773
4830,818,772
4835,833,766
4840,828,763
4845,844,762
4850,861,750
4855,874,751
4860,901,752
4865,900,746
4870,914,740
4875,927,734
4880,935,730
4885,948,729
4890,970,732
4895,980,722
4900,989,717
4905,997,716
4910,1023,711
4915,1027,707
4920,1051,706
4925,1052,709
4930,1075,704
4935,1083,700
4940,1089,699
4945,1104,694
4950,1118,702
4955,1125,699
4960,1139,698
4965,1141,696
4970,1150,696
4975,1154,703
4980,1165,700
4985,1167,703
4990,1164,707
4995,1179,711
5000,1183,711
5005,1181,713
5010,1183,718
5015,1197,721
5020,1195,726
5025,1189,728
5030,1190,737
5035,1179,737
5040,1180,744
5045,1184,748
5050,1181,757
5055,1179,760
5060,1180,762
5065,1173,767
5070,1165,775
5075,1178,792
5080,1167,785
5085,1157,789
5090,1168,798
5095,1156,799
5100,1151,805
5105,1155,815
5110,1145,814
5115,1137,821
5120,1134,832
5125,1136,831
5130,1130,838
5135,1138,842
5140,1122,841
5145,1120,846
5150,1122,849
5155,1112,859
5160,1110,865
5165,1110,858
5170,1109,867
5175,1099,867
5180,1102,872
5185,1097,868
5190,1103,869
5195,1093,868
5200,1092,870
5205,1098,880
5210,1094,874
5215,1078,875
5220,1087,880
5225,1073,876
5230,1078,878
5235,1069,879
5240,1062,869
5245,1064,872
5250,1061,871
5255,1051,865
5260,1046,877
5265,1052,868
5270,1044,867
5275,1040,869
5280,1038,868
5285,1030,865
5290,1022,862
5295,1005,864
5300,999,854
5305,992,856
5310,991,851
5315,985,859
5320,964,852
5325,970,857
5330,949,850
5335,944,850
5340,938,849
5345,931,841
5350,914,843
5355,912,843
5360,898,841
5365,877,840
5370,867,843
5375,870,838
5380,856,837
5385,847,835
5390,836,835
5395,827,834
5400,820,829
5405,814,836
5410,802,837
5415,780,832
5420,775,830
5425,780,825
5430,774,826
5435,767,827
5440,764,822
5445,759,823
5450,761,823
5455,750,819
5460,754,819
5465,750,814
5470,746,813
5475,750,810
5480,753,805
5485,762,806
5490,752,798
5495,766,800
5500,759,792
5505,762,793
5510,768,787
5515,781,779
5520,792,776
5525,796,773
5530,806,776
5535,815,765
5540,820,765
5545,843,762
5550,856,757
5555,867,755
5560,876,746
5565,889,746
5570,895,742
5575,918,737
5580,933,733
5585,941,729
5590,962,727
5595,979,721
5600,983,718
5605,1005,709
5610,1013,715
5615,1030,709
5620,1041,709
5625,1048,709
5630,1065,699
5635,1069,707
5640,1091,699
5645,1093,695
5650,1113,702
5655,1124,695
5660,1129,696
5665,1131,696
5670,1144,700
5675,1152,695
5680,1162,701
5685,1169,702
5690,1160,707
5695,1161,709
5700,1176,709
5705,1173,713
5710,1187,713
5715,1177,721
5720,1192,726
5725,1189,729
5730,1185,731
5735,1190,736
5740,1188,740
5745,1179,744
5750,1180,753
5755,1176,756
5760,1184,764
5765,1178,769
5770,1179,770
5775,1171,782
5780,1173,781
5785,1166,785
5790,1160,800
5795,1151,797
5800,1150,801
5805,1148,809
5810,1143,815
5815,1142,829
5820,1150,832
5825,1133,838
5830,1129,835
5835,1134,842
5840,1118,841
5845,1121,846
5850,1120,855
5855,1119,854
5860,1112,853
5865,1104,855
5870,1108,863
5875,1098,873
5880,1100,869
5885,1099,867
5890,1093,873
5895,1099,873
5900,1085,870
5905,1088,875
5910,1083,875
5915,1089,877
5920,1085,876
5925,1081,882
5930,1079,875
5935,1079,876
5940,1073,872
5945,1061,875
5950,1056,878
5955,1059,870
5960,1054,877
5965,1057,870
5970,1029,866
5975,1043,865
5980,1039,869
5985,1028,868
5990,1022,866
5995,1019,860
6000,1010,859
6005,1008,859
6010,993,855
6015,992,856
6020,968,855
6025,973,849
6030,964,850
6035,949,850
6040,938,848
6045,939,839
6050,924,844
6055,918,844
6060,903,847
6065,898,847
6070,886,843
6075,866,845
6080,854,840
6085,857,837
6090,836,835
6095,833,836
6100,813,831
6105,804,830
6110,796,836
6115,800,835
6120,782,827
6125,774,831
6130,770,831
6135,770,826
6140,767,825
6145,760,820
6150,753,825
6155,760,822
6160,748,817
6165,749,815
6170,748,818
6175,751,811
6180,747,807
6185,753,812
6190,756,804
6195,757,800
6200,760,798
6205,759,791
6210,770,791
6215,772,780
6220,784,786
6225,792,777
6230,806,768
6235,815,769
6240,816,768
6245,835,770
6250,854,760
6255,855,761
6260,872,756
6265,888,746
6270,903,748
6275,915,736
6280,923,737
6285,935,736
6290,964,728
6295,967,722
6300,984,727
6305,993,717
6310,1006,710
6315,1012,711
6320,1029,713
6325,1046,708
6330,1064,711
6335,1075,703
6340,1079,696
6345,1091,702
6350,1102,699
6355,1111,699
6360,1120,701
6365,1124,700
6370,1135,701
6375,1147,704
6380,1158,704
6385,1159,697
6390,1166,711
6395,1173,703
6400,1169,707
6405,1185,713
6410,1183,712
6415,1188,717
6420,1183,722
6425,1197,724
6430,1187,729
6435,1185,735
6440,1186,739
6445,1182,742
6450,1185,747
6455,1196,752
6460,1182,759
6465,1183,773
6470,1181,773
6475,1177,773
6480,1169,781
6485,1166,787
6490,1158,787
6495,1162,794
6500,1158,797
6505,1149,807
6510,1149,814
6515,1145,817
6520,1134,827
6525,1140,828
6530,1136,832
6535,1130,839
6540,1119,842
6545,1132,851
6550,1115,852
6555,1115,857
6560,1109,855
6565,1111,868
6570,1111,860
6575,1107,868
6580,1108,871
6585,1104,870
6590,1101,871
6595,1099,872
6600,1085,872
6605,1091,880
6610,1087,873
6615,1085,874
6620,1090,876
6625,1084,875
6630,1079,873
6635,1068,875
6640,1068,874
6645,1069,877
6650,1068,871
6655,1058,873
6660,1050,871
6665,1062,872
6670,1044,868
6675,1036,866
6680,1027,865
6685,1027,864
6690,1023,863
6695,1028,856
6700,1020,860
6705,1012,850
6710,1003,858
6715,988,855
6720,979,850
6725,972,851
6730,971,858
6735,948,850
6740,943,847
6745,943,848
6750,922,843
6755,909,847
6760,900,848
6765,884,838
6770,883,836
6775,872,840
6780,868,842
6785,850,839
6790,846,841
6795,830,838
6800,819,833
6805,823,834
6810,811,832
6815,796,828
6820,789,828
6825,784,829
6830,783,831
6835,767,823
6840,774,827
6845,768,821
6850,759,826
6855,757,824
6860,750,820
6865,751,814
6870,747,812
6875,750,816
6880,757,813
6885,751,812
6890,754,809
6895,753,799
6900,757,798
6905,767,802
6910,768,791
6915,780,788
6920,781,790
6925,798,784
6930,806,777
6935,809,773
6940,817,770
6945,834,761
6950,841,763
6955,849,756
6960,861,753
6965,874,749
6970,892,750
6975,896,742
6980,918,732
6985,926,732
6990,955,732
6995,952,723
7000,970,719
7005,986,722
7010,1003,714
7015,1015,714
7020,1023,712
7025,1041,710
7030,1058,704
7035,1063,702
7040,1077,702
7045,1082,700
7050,1091,699
7055,1106,699
7060,1116,700
7065,1128,698
7070,1135,698
7075,1145,699
7080,1150,703
7085,1149,702
7090,1166,704
7095,1171,709
7100,1165,706
7105,1186,710
7110,1179,709
7115,1180,716
7120,1184,716
7125,1180,731
7130,1187,727
7135,1183,732
7140,1199,737
7145,1196,739
7150,1187,751
7155,1184,751
7160,1178,760
7165,1186,760
7170,1175,769
7175,1184,770
7180,1182,778
7185,1171,783
7190,1164,783
7195,1165,799
7200,1163,797
7205,1158,810
7210,1151,814
7215,1149,814
7220,1145,824
7225,1135,830
7230,1144,831
7235,1135,840
7240,1126,837
7245,1128,846
7250,1125,849
7255,1127,846
7260,1116,854
7265,1119,852
7270,1110,863
7275,1108,861
7280,1105,866
7285,1105,864
7290,1098,867
7295,1109,870
7300,1082,870
7305,1095,870
7310,1102,871
7315,1090,873
7320,1083,871
7325,1083,876
7330,1076,875
7335,1071,876
7340,1069,876
7345,1074,876
7350,1062,875
7355,1063,867
7360,1059,868
7365,1054,868
7370,1057,868
7375,1043,869
7380,1040,869
7385,1030,862
7390,1037,863
7395,1024,859
7400,1020,860
7405,1007,858
7410,1000,858
7415,999,856
7420,985,855
7425,973,850
7430,974,848
7435,955,848
7440,960,844
7445,940,845
7450,927,848
7455,919,843
7460,914,840
7465,905,844
7470,885,840
7475,875,838
7480,865,841
7485,860,842
7490,854,834
7495,839,840
7500,833,836
7505,822,835
7510,808,831
7515,806,832
7520,793,833
7525,792,827
7530,791,827
7535,775,827
7540,764,827
7545,764,823
7550,759,822
7555,759,823
7560,745,818
7565,755,817
7570,745,818
7575,747,813
7580,746,810
7585,751,808
7590,757,804
7595,749,807
7600,761,801
7605,756,794
7610,773,795
7615,775,788
7620,782,786
7625,797,780
7630,801,774
7635,805,777
7640,816,771
7645,825,764
7650,844,762
7655,849,760
7660,854,765
7665,866,750
7670,885,748
7675,896,742
7680,909,740
7685,928,735
7690,949,739
7695,951,734
7700,962,725
7705,975,723
7710,998,719
7715,1011,716
7720,1013,707
7725,1034,714
7730,1043,710
7735,1059,702
7740,1071,699
7745,1081,707
7750,1094,696
7755,1099,700
7760,1116,703
7765,1124,696
7770,1131,701
7775,1145,702
7780,1147,697
7785,1159,693
7790,1161,703
7795,1161,707
7800,1168,709
7805,1182,707
7810,1184,713
7815,1189,713
7820,1183,720
7825,1181,726
7830,1191,727
7835,1180,732
7840,1187,735
7845,1191,742
7850,1192,745
7855,1182,747
7860,1178,750
7865,1184,760
7870,1179,766
7875,1171,768
7880,1180,774
7885,1176,781
7890,1174,785
7895,1166,791
7900,1158,796
7905,1154,803
7910,1159,808
7915,1142,817
7920,1152,820
7925,1137,827
7930,1144,825
7935,1136,835
7940,1126,833
7945,1127,842
7950,1128,846
7955,1121,850
7960,1119,852
7965,1114,857
7970,1108,858
7975,1107,859
7980,1105,864
7985,1103,867
7990,1100,872
7995,1094,871
8000,1101,873
8005,1088,875
8010,1091,874
8015,1095,873
8020,1090,870
8025,1080,874
8029,1082,878
8035,1071,879
8039,1085,874
8045,1068,877
8050,1076,877
8055,1062,872
8060,1059,873
8064,1054,873
8070,1048,873
8074,1047,871
8080,1037,865
8085,1036,869
8090,1034,863
8095,1023,867
8100,1011,863
8105,1008,861
8109,1001,861
8115,1001,852
8119,991,858
8125,979,851
8130,975,854
8135,958,862
8140,960,853
8145,942,846
8150,928,848
8154,924,842
8160,915,843
8164,906,842
8170,894,841
8175,888,842
8180,870,842
8185,875,840
8189,861,832
8195,849,836
8200,838,838
8205,829,835
8210,811,836
8215,815,828
8220,805,832
8225,803,838
8230,786,832
8235,777,830
8240,771,828
8245,764,824
8250,762,824
8255,757,828
8260,755,816
8265,761,820
8270,743,814
8275,753,816
8280,754,814
8285,750,810
8290,754,808
8295,751,803
8300,760,799
8305,759,802
8310,766,794
8315,770,791
8320,774,790
8325,778,783
8330,796,780
8335,798,781
8340,800,776
8345,813,765
8350,833,765
8355,846,765
8360,858,756
8365,864,753
8370,884,750
8375,883,749
8380,908,739
8385,924,729
8390,932,740
8395,948,730
8400,954,728
8405,973,725
8410,978,716
8415,991,714
8420,1011,715
8425,1028,709
8430,1034,711
8435,1052,703
8440,1063,704
8445,1072,704
8450,1085,699
8455,1099,697
8460,1110,697
8465,1125,698
8470,1117,699
8475,1139,699
8480,1140,698
8485,1153,703
8490,1158,701
8495,1165,701
8500,1177,706
8505,1178,704
8510,1180,715
8515,1179,709
8520,1183,720
8525,1181,719
8530,1185,720
8535,1193,725
8540,1191,732
8545,1187,735
8550,1192,740
8555,1185,746
8560,1186,745
8565,1191,754
8570,1181,763
8575,1169,765
8580,1168,769
8585,1183,780
8590,1165,782
8595,1162,793
8600,1168,797
8605,1165,794
8610,1148,804
8615,1153,813
8620,1147,817
8625,1147,824
8630,1143,832
8635,1148,823
8640,1127,833
8645,1140,843
8650,1119,841
8655,1119,849
8660,1126,845
8665,1115,857
8670,1112,857
8675,1110,859
8680,1106,862
8685,1111,860
8690,1099,865
8695,1100,868
8700,1095,869
8705,1089,871
8710,1091,874
8715,1095,881
8720,1080,877
8725,1085,875
8730,1082,874
8735,1072,876
8740,1081,879
8745,1071,875
8750,1060,874
8755,1061,875
8760,1065,873
8765,1058,872
8770,1051,874
8775,1053,870
8780,1054,863
8785,1041,865
8790,1036,865
8795,1033,865
8800,1028,860
8805,1024,861
8810,1017,856
8815,998,858
8820,1001,852
8825,973,853
8830,974,854
8835,982,845
8840,963,851
8845,950,850
8850,945,844
8855,930,853
8860,925,848
8865,911,842
8870,905,841
8875,909,848
8880,880,838
8885,874,833
8890,862,840
8895,846,836
8900,836,831
8905,836,840
8910,814,840
8915,818,832
8920,812,831
8925,801,828
8930,795,834
8935,786,828
8940,771,830
8945,765,828
8950,767,826
8955,765,826
8960,762,821
8965,749,822
8970,755,817
8975,738,813
8980,744,813
8985,751,813
8990,750,812
8995,742,810
9000,760,799
9005,758,796
9010,752,795
9015,768,795
9020,774,790
9025,780,787
9030,780,785
9035,796,772
9040,803,776
9045,817,765
9050,825,771
9055,840,768
9060,843,757
9065,848,760
9070,868,755
9075,879,751
9080,889,741
9085,905,738
9090,917,734
9095,935,731
9100,952,730
9105,968,726
9110,974,719
9115,984,717
9120,1005,716
9125,1023,716
9130,1036,713
9135,1038,705
9140,1064,705
9145,1074,704
9150,1087,705
9155,1098,702
9160,1100,702
9165,1106,701
9170,1130,706
9175,1127,704
9180,1129,700
9185,1139,698
9190,1150,700
9195,1160,702
9200,1162,704
9205,1176,705
9210,1181,708
9215,1175,719
9220,1179,713
9225,1186,715
9230,1188,721
9235,1185,723
9240,1183,729
9245,1186,737
9250,1186,739
9255,1186,742
9260,1184,753
9265,1182,754
9270,1180,759
9275,1178,764
9280,1169,773
9285,1169,775
9290,1174,779
9295,1169,787
9300,1166,791
9305,1157,796
9310,1166,800
9315,1148,804
9320,1144,814
9325,1137,819
9330,1141,818
9335,1134,832
9340,1132,837
9345,1127,835
9350,1123,835
9355,1119,845
9360,1130,855
9365,1114,851
9370,1111,852
9375,1112,854
9380,1113,858
9385,1105,865
9390,1104,866
9395,1098,868
9400,1095,870
9405,1095,869
9410,1088,872
9415,1102,874
9420,1095,875
9425,1080,876
9430,1081,870
9435,1089,879
9440,1079,881
9445,1069,879
9450,1069,877
9455,1069,872
9460,1066,874
9465,1054,869
9470,1060,870
9475,1055,866
9480,1049,862
9485,1043,864
9490,1040,866
9495,1048,871
9500,1020,859
9505,1027,857
9510,1017,859
9515,1001,856
9520,1001,854
9525,999,857
9530,985,853
9535,971,855
9540,963,850
9545,954,845
9550,950,851
9555,938,843
9560,921,843
9565,910,843
9570,903,840
9575,902,841
9580,893,843
9585,880,842
9590,860,842
9595,853,842
9600,845,835
9605,833,833
9610,826,834
9615,820,835
9620,806,833
9625,800,834
9630,791,832
9635,784,830
9640,792,826
9645,777,830
9650,758,823
9655,755,821
9660,762,826
9665,752,825
9670,747,823
9675,753,813
9680,745,809
9685,743,810
9690,753,812
9695,756,811
9700,751,802
9705,764,799
9710,754,807
9715,764,792
9720,772,787
9725,776,791
9730,789,783
9735,795,778
9740,804,778
9745,811,771
9750,818,764
9755,827,766
9760,838,761
9765,854,758
9770,864,758
9775,871,748
9780,894,744
9785,901,743
9790,907,739
9795,933,727
9800,951,729
9805,954,731
9810,967,721
9815,981,721
9820,1004,722
9825,1011,713
9830,1029,706
9835,1026,704
9840,1048,702
9845,1059,703
9850,1065,707
9855,1087,703
9860,1099,699
9865,1109,699
9870,1119,694
9875,1120,700
9880,1130,700
9885,1136,695
9890,1151,700
9895,1158,706
9900,1161,698
9905,1172,709
9910,1169,701
9915,1169,707
9920,1181,712
9925,1186,714
9930,1181,718
9935,1195,721
9940,1185,723
9945,1189,732
9950,1188,740
9955,1187,742
9960,1189,744
9965,1178,745
9970,1178,758
9975,1171,761
9980,1178,765
9985,1176,767
9990,1165,776
9995,1170,781
10000,1166,790
10005,1164,792
10010,1158,801
10015,1149,808
10020,1153,807
10025,1146,813
10030,1147,822
10035,1149,821
10040,1150,832
10045,1137,834
10050,1133,840
10055,1118,843
10060,1121,845
10065,1119,854
10070,1121,858
10075,1111,857
10080,1104,856
10085,1112,860
10090,1108,868
10095,1103,866
10100,1110,873
10105,1102,870
10110,1091,871
10115,1096,874
10120,1084,873
10125,1090,870
10130,1082,876
10135,1085,872
10140,1084,875
10145,1076,874
10150,1077,883
10155,1072,873
10160,1073,874
10165,1077,870
10170,1061,867
10175,1058,875
10180,1055,868
10185,1048,861
10190,1040,863
10195,1040,863
10200,1028,864
10205,1016,859
10210,1026,860
10215,1018,865
10220,1000,856
10225,989,853
10230,987,853
10235,972,847
10240,967,850
10245,963,847
10250,942,843
10255,940,847
10260,921,847
10265,926,843
10270,918,845
10275,899,849
10280,891,841
10285,882,841
10290,868,838
10295,859,837
10300,846,837
10305,843,834
10310,829,830
10315,833,835
10320,812,835
10325,793,834
10330,798,829
10335,790,836
10340,784,831
10345,777,826
10350,771,828
10355,760,829
10360,763,824
10365,759,823
10370,761,818
10375,750,813
10380,748,816
10385,742,813
10390,748,812
10395,744,802
10400,752,803
10405,748,804
10410,755,805
10415,763,796
10420,753,795
10425,769,795
10430,783,790
10435,785,779
10440,791,776
10445,801,774
10450,807,775
10455,832,767
10460,833,762
10465,842,758
10470,857,754
10475,869,754
10480,889,744
10485,892,741
10490,913,745
10495,919,739
10500,937,730
10505,953,731
10510,973,723
10515,980,718
10520,992,719
10525,998,719
10530,1019,713
10535,1030,711
10540,1043,708
10545,1059,704
10550,1066,705
10555,1076,697
10560,1083,697
10565,1106,696
10570,1110,698
10575,1122,696
10580,1133,696
10585,1149,699
10590,1142,701
10595,1159,700
10600,1156,702
10605,1164,704
10610,1170,710
10615,1175,708
10620,1174,709
10625,1181,713
10630,1179,713
10635,1184,724
10640,1196,728
10645,1187,727
10650,1185,731
10655,1189,738
10660,1187,743
10665,1187,746
10670,1182,753
10675,1196,757
10680,1175,771
10685,1177,770
10690,1183,771
10695,1163,781
10700,1172,788
10705,1163,789
10710,1165,798
10715,1150,806
10720,1157,809
10725,1145,811
10730,1153,818
10735,1140,817
10740,1142,830
10745,1141,836
10750,1126,840
10755,1117,843
10760,1125,846
10765,1126,846
10770,1113,849
10775,1114,854
10780,1119,859
10785,1104,865
10790,1105,859
10795,1104,867
10800,1096,869
10805,1098,868
10810,1097,868
10815,1094,874
10820,1087,873
10825,1092,880
10830,1086,874
10835,1081,879
10840,1081,876
10845,1080,876
10850,1075,879
10855,1072,875
10860,1068,877
10865,1068,879
10870,1058,867
10875,1060,871
10880,1050,872
10885,1052,868
10890,1046,875
10895,1031,867
10900,1033,859
10905,1023,856
10910,1011,860
10915,1018,861
10920,1006,860
10925,996,857
10930,993,853
10935,990,850
10940,977,855
10945,972,855
10950,960,849
10955,937,847
10960,927,851
10965,922,847
10970,913,843
10975,904,844
10980,895,843
10985,894,839
10990,876,842
10995,867,839
11000,853,836
11005,856,840
11010,841,837
11015,835,837
11020,822,833
11025,813,832
11030,800,839
11035,794,831
11040,792,821
11045,773,828
11050,766,833
11055,768,832
11060,766,822
11065,766,827
11070,757,819
11075,751,824
11080,757,812
11085,739,816
11090,749,814
11095,752,810
11100,752,807
11105,752,804
11110,743,804
11115,758,796
11120,763,798
11125,776,790
11130,775,786
11135,787,787
11140,795,783
11145,798,785
11150,811,777
11155,813,772
11160,824,770
11165,838,761
11170,857,761
11175,866,753
11180,873,751
11185,889,740
11190,911,740
11195,915,735
11200,932,738
11205,946,732
11210,961,721
11215,971,722
11220,981,718
11225,995,719
11230,1011,716
11235,1039,708
11240,1029,708
11245,1039,709
11250,1064,701
11255,1084,707
11260,1092,708
11265,1091,696
11270,1109,697
11275,1112,700
11280,1128,690
11285,1144,701
11290,1140,701
11295,1152,700
11300,1159,703
11305,1169,708
11310,1162,701
11315,1172,707
11320,1172,714
11325,1182,714
11330,1182,707
11335,1187,720
11340,1184,724
11345,1175,727
11350,1189,730
11355,1186,736
11360,1185,739
11365,1188,751
11370,1190,754
11375,1192,754
11380,1179,760
11385,1174,769
11390,1166,773
11395,1180,775
11400,1174,779
11405,1160,786
11410,1159,791
11415,1156,797
11420,1157,803
11425,1152,809
11430,1141,815
11435,1135,815
11440,1141,828
11445,1131,833
11450,1128,836
11455,1132,839
11460,1114,842
11465,1122,846
11470,1120,847
11475,1117,855
11480,1109,857
11485,1111,862
11490,1116,867
11495,1098,863
11500,1094,864
11505,1104,874
11510,1094,871
11515,1097,872
11520,1093,876
11525,1083,871
11530,1080,876
11535,1082,871
11540,1076,877
11545,1076,876
11550,1077,876
11555,1068,874
11560,1063,875
11565,1077,874
11570,1062,874
11575,1064,873
11580,1071,864
11585,1054,866
11590,1046,866
11595,1043,864
11600,1035,869
11605,1026,866
11610,1009,858
11615,1016,858
11620,1005,856
11625,997,861
11630,988,857
11635,980,854
11640,983,853
11645,958,849
11650,967,851
11655,945,846
11660,937,848
11665,928,848
11670,920,849
11675,907,841
11680,909,840
11685,892,842
11690,878,841
11695,868,840
11700,863,845
11705,847,832
11710,843,837
11715,836,838
11720,819,833
11725,806,832
11730,809,835
11735,802,834
11740,799,832
11745,780,824
11750,780,823
11755,774,823
11760,757,825
11765,758,821
11770,755,823
11775,753,821
11780,749,820
11785,743,813
11790,748,812
11795,753,810
11800,745,809
11805,748,806
11810,747,799
11815,754,803
11820,769,795
11825,777,796
11830,763,795
11835,771,790
11840,787,784
11845,801,782
11850,790,778
11855,814,776
11860,809,774
11865,830,763
11870,840,763
11875,860,758
11880,867,753
11885,887,753
11890,902,748
11895,911,743
11900,912,734
11905,932,733
11910,941,733
11915,963,723
11920,975,720
11925,992,718
11930,1006,720
11935,1020,713
11940,1028,709
11945,1036,711
11950,1047,711
11955,1070,703
11960,1081,704
11965,1095,702
11970,1099,700
11975,1106,698
11980,1123,696
11985,1117,693
11990,1147,700
11995,1139,698
12000,1143,702
12005,1158,703
12010,1170,706
12015,1170,706
12020,1168,710
12025,1170,704
12030,1179,717
12035,1174,715
12040,1185,716
12045,1188,724
12050,1189,726
12055,1191,735
12060,1193,737
12065,1184,745
12070,1185,751
12075,1189,751
12080,1189,762
12085,1193,766
12090,1184,772
12095,1172,772
12100,1169,780
12105,1167,785
12110,1164,791
12115,1159,799
12120,1153,803
12125,1153,808
12130,1148,813
12135,1143,825
12140,1144,820
12145,1142,830
12150,1126,830
12155,1126,840
12160,1125,837
12165,1119,845
12170,1124,848
12175,1124,854
12180,1122,857
12185,1115,855
12190,1113,863
12195,1102,861
12200,1109,868
12205,1106,869
12210,1100,873
12215,1093,877
12220,1094,873
12225,1079,873
12230,1093,880
12235,1096,883
12240,1076,866
12245,1082,876
12250,1073,872
12255,1070,875
12260,1079,880
12265,1080,876
12270,1070,874
12275,1061,874
12280,1056,866
12285,1056,869
12290,1043,872
12295,1038,869
12300,1039,856
12305,1032,865
12310,1030,864
12315,1018,863
12320,1018,860
12325,1012,857
12330,1008,855
12335,993,854
12340,981,849
12345,968,849
12350,963,851
12355,958,851
12360,943,849
12365,942,846
12370,934,839
12375,925,841
12380,899,844
12385,899,841
12390,889,847
12395,874,838
12400,871,841
12405,856,845
12410,851,838
12415,836,834
12420,824,837
12425,812,832
12430,801,832
12435,799,825
12440,792,831
12445,783,835
12450,771,826
12455,773,833
12460,765,825
12465,763,825
12470,761,824
12475,755,824
12480,750,819
12485,750,818
12490,751,814
12495,752,810
12500,748,807
12505,752,807
12510,760,805
12515,753,800
12520,752,798
12525,759,797
12530,765,796
12535,771,791
12540,786,784
12545,790,790
12550,795,776
12555,805,777
12560,822,772
12565,821,776
12570,830,764
12575,859,760
12580,855,752
12585,875,750
12590,890,745
12595,891,748
12600,908,736
12605,929,732
12610,943,729
12615,957,723
12620,968,725
12625,981,719
12630,1000,716
12635,1013,710
12640,1017,712
12645,1040,712
12650,1041,703
12655,1053,704
12660,1068,705
12665,1082,698
12670,1094,700
12675,1103,701
12680,1114,695
12685,1123,702
12690,1131,704
12695,1141,700
12700,1142,702
12705,1155,699
12710,1162,702
12715,1178,707
12720,1170,709
12725,1175,706
12730,1186,715
12735,1180,712
12740,1190,721
12745,1190,722
12750,1197,726
12755,1189,727
12760,1191,734
12765,1182,741
12770,1179,743
12775,1181,749
12780,1174,755
12785,1180,757
12790,1171,766
12795,1175,770
12800,1168,777
12805,1167,786
12810,1166,787
12815,1161,791
12820,1162,798
12825,1152,804
12830,1158,817
12835,1137,816
12840,1138,816
12845,1134,822
12850,1135,827
12855,1131,832
12860,1127,835
12865,1129,844
12870,1122,852
12875,1114,851
12880,1111,855
12885,1113,861
12890,1115,861
12895,1102,861
12900,1104,857
12905,1108,862
12910,1105,868
12915,1097,869
12920,1098,874
12925,1085,873
12930,1092,872
12935,1094,873
12940,1091,875
12945,1086,876
12950,1085,876
12955,1081,883
12960,1070,880
12965,1069,878
12970,1067,872
12975,1067,874
12980,1066,868
12985,1059,872
12990,1050,870
12995,1046,873
13000,1051,862
13005,1039,863
13010,1017,863
13015,1024,860
13020,1027,862
13025,1015,861
13030,1015,859
13035,992,853
13040,993,860
13045,979,854
13050,972,850
13055,951,850
13060,960,847
13065,941,845
13070,935,847
13075,924,843
13080,917,844
13085,911,844
13090,888,838
13095,882,835
13100,858,845
13105,864,846
13110,853,836
13115,850,842
13120,843,835
13125,816,838
13130,816,829
13135,808,834
13140,797,824
13145,793,831
13150,789,829
13155,775,825
13160,764,823
13165,768,823
13170,762,823
13175,756,824
13180,748,817
13185,754,815
13190,739,817
13195,746,817
13200,744,809
13205,751,814
13210,748,810
13215,755,808
13220,759,800
13225,763,799
13230,765,795
13235,769,793
13240,775,794
13245,792,791
13250,786,772
13255,796,777
13260,808,768
13265,819,766
13270,838,760
13275,846,756
13280,858,757
13285,872,752
13290,874,750
13295,902,739
13300,907,739
13305,917,740
13310,931,731
13315,947,733
13320,955,726
13325,974,722
13330,990,714
13335,1000,718
13340,1013,716
13345,1031,711
13350,1049,701
13355,1055,706
13360,1061,704
13365,1086,697
13370,1089,704
13375,1103,703
13380,1104,701
13385,1113,700
13390,1122,700
13395,1143,701
13400,1140,703
13405,1154,697
13410,1162,702
13415,1153,706
13420,1172,703
13425,1179,708
13430,1171,712
13435,1188,708
13440,1180,719
13445,1184,720
13450,1186,724
13455,1184,726
13460,1190,731
13465,1189,738
13470,1190,746
13475,1188,740
13480,1190,753
13485,1188,757
13490,1185,763
13495,1176,768
13500,1172,776
13505,1176,777
13510,1173,786
13515,1159,793
13520,1166,793
13525,1156,797
13530,1150,805
13535,1149,809
13540,1148,815
13545,1129,819
13550,1137,822
13555,1140,830
13560,1133,833
13565,1125,833
13570,1122,839
13575,1119,853
13580,1121,855
13585,1115,856
13590,1111,858
13595,1120,864
13600,1114,863
13605,1100,865
13610,1096,875
13615,1096,867
13620,1096,872
13625,1086,877
13630,1094,874
13635,1086,876
13640,1081,874
13645,1086,880
13650,1088,872
13655,1082,874
13660,1077,870
13665,1081,877
13670,1073,874
13675,1059,877
13680,1056,875
13685,1058,878
13690,1041,865
13695,1048,868
13700,1047,868
13705,1042,865
13710,1029,862
13715,1030,864
13720,1007,863
13725,1022,862
13730,1008,855
13735,1002,860
13740,990,850
13745,987,852
13750,978,853
13755,972,848
13760,969,849
13765,953,848
13770,942,843
13775,921,844
13780,922,847
13785,907,849
13790,903,844
13795,883,841
13800,885,839
13805,879,842
13810,856,837
13815,842,838
13820,840,833
13825,822,840
13830,811,832
13835,810,833
13840,803,830
13845,802,830
13850,790,826
13855,775,829
13860,766,828
13865,770,824
13870,768,824
13875,768,826
13880,762,817
13885,753,816
13890,753,815
13895,746,811
13900,745,814
13905,753,810
13910,760,807
13915,758,805
13920,748,802
13925,755,801
13930,764,794
13935,765,794
13940,777,789
13945,776,784
13950,791,780
13955,796,777
13960,802,774
13965,818,776
13970,832,768
13975,828,766
13980,856,758
13985,855,759
13990,871,749
13995,887,747
14000,892,742
14005,917,736
14010,920,738
14015,942,732
14020,953,720
14025,965,722
14030,988,726
14035,996,717
14040,1014,716
14045,1028,711
14050,1034,713
14055,1048,704
14060,1061,705
14065,1075,704
14070,1086,708
14075,1098,693
14080,1111,700
14085,1119,697
14090,1127,697
14095,1135,696
14100,1144,698
14105,1146,702
14110,1162,704
14115,1164,702
14120,1160,704
14125,1174,701
14130,1177,708
14135,1177,713
14140,1174,716
14145,1186,715
14150,1176,717
14155,1179,727
14160,1182,732
14165,1187,735
14170,1192,741
14175,1191,743
14180,1177,751
14185,1180,753
14190,1184,759
14195,1176,761
14200,1174,772
14205,1165,776
14210,1175,782
14215,1166,787
14220,1154,790
14225,1158,801
14230,1150,802
14235,1147,809
14240,1142,815
14245,1139,821
14250,1146,823
14255,1140,831
14260,1131,834
14265,1146,836
14270,1123,840
14275,1134,842
14280,1115,852
14285,1107,857
14290,1122,855
14295,1112,860
14300,1104,866
14305,1105,865
14310,1114,872
14315,1095,867
14320,1099,870
14325,1091,878
14330,1091,874
14335,1085,870
14340,1088,869
14345,1090,881
14350,1083,872
14355,1075,879
14360,1083,878
14365,1080,875
14370,1067,871
14375,1066,874
14380,1075,873
14385,1063,866
14390,1053,871
14395,1054,871
14400,1045,866
14405,1035,865
14410,1040,866
14415,1040,868
14420,1022,865
14425,1012,855
14430,1015,858
14435,1001,864
14440,994,859
14445,988,854
14450,980,850
14455,971,849
14460,957,848
14465,951,853
14470,938,845
14475,924,853
14480,919,848
14485,916,847
14490,903,846
14495,892,839
14500,884,841
14505,869,841
14510,864,837
14515,850,834
14520,848,839
14525,837,834
14530,825,833
14535,820,836
14540,816,841
14545,795,830
14550,782,834
14555,784,829
14560,774,826
14565,766,831
14570,773,827
14575,761,822
14580,752,815
14585,752,815
14590,755,818
14595,749,813
14600,744,810
14605,747,816
14610,746,806
14615,750,804
14620,750,802
14625,754,805
14630,762,797
14635,757,796
14640,773,796
14645,771,786
14650,780,785
14655,790,784
14660,794,774
14665,808,772
14670,831,776
14675,820,767
14680,848,763
14685,854,755
14690,862,751
14695,871,750
14700,891,741
14705,907,739
14710,923,740
14715,936,731
14720,944,729
14725,967,726
14730,974,721
14735,983,716
14740,1000,711
14745,1021,713
14750,1031,710
14755,1043,711
14760,1062,708
14765,1069,703
14770,1075,705
14775,1093,696
14780,1095,698
14785,1105,693
14790,1113,697
14795,1124,700
14800,1145,698
14805,1151,697
14810,1159,701
14815,1161,702
14820,1160,708
14825,1165,708
14830,1178,708
14835,1171,709
14840,1171,715
14845,1186,717
14850,1184,721
14855,1183,726
14860,1190,725
14865,1185,734
14870,1177,738
14875,1187,741
14880,1185,746
14885,1186,750
14890,1175,755
14895,1184,767
14900,1176,770
14905,1171,773
14910,1168,774
14915,1171,789
14920,1156,789
14925,1167,791
14930,1152,799
14935,1158,803
14940,1154,812
14945,1141,815
14950,1137,823
14955,1142,831
14960,1140,829
14965,1125,837
14970,1134,839
14975,1119,839
14980,1121,851
14985,1121,852
14990,1115,854
14995,1108,860
15000,1107,864
15005,1106,857
15010,1102,861
15015,1103,870
15020,1091,869
15025,1095,873
15030,1092,877
15035,1096,879
15040,1098,874
15045,1097,881
15050,1078,878
15055,1088,872
15060,1080,872
15065,1078,877
15070,1073,872
15075,1065,876
15080,1076,873
15085,1056,867
15090,1058,870
15095,1046,870
15100,1052,869
15105,1044,870
15110,1042,864
15115,1024,868
15120,1032,869
15125,1015,858
15130,1004,858
15135,1010,858
15140,1004,858
15145,995,858
15150,985,854
15155,969,852
15160,977,850
15165,972,848
15170,946,853
15175,929,849
15180,924,844
15185,918,847
15190,911,840
15195,901,837
15200,903,844
15205,879,837
15210,872,846
15215,860,835
15220,852,840
15225,838,839
15230,828,831
15235,824,834
15240,814,829
15245,801,840
15250,790,827
15255,778,831
15260,780,829
15265,777,826
15270,766,826
15275,766,826
15280,769,825
15285,767,820
15290,747,823
15295,754,816
15300,742,816
15305,747,811
15310,740,812
15315,754,817
15320,757,801
15325,747,803
15330,747,801
15335,762,793
15340,767,795
15345,766,789
15350,775,787
15355,788,786
15360,801,776
15365,801,778
15370,815,763
15375,812,771
15380,840,758
15385,852,758
15390,870,754
15395,873,755
15400,888,743
15405,900,745
15410,915,742
15415,924,733
15420,942,731
15425,955,731
15430,964,721
15435,981,726
15440,992,718
15445,1001,717
15450,1027,714
15455,1039,702
15460,1048,708
15465,1069,705
15470,1071,700
15475,1079,702
15480,1086,700
15485,1108,699
15490,1125,702
15495,1122,698
15500,1131,700
15505,1148,703
15510,1142,697
15515,1156,702
15520,1160,699
15525,1164,698
15530,1169,705
15535,1169,708
15540,1177,709
15545,1187,712
15550,1181,722
15555,1191,725
15560,1193,728
15565,1180,730
15570,1188,737
15575,1192,741
15580,1180,744
15585,1188,751
15590,1178,754
15595,1181,754
15600,1176,768
15605,1175,766
15610,1183,775
15615,1162,784
15620,1172,789
15625,1157,794
15630,1161,799
15635,1156,804
15640,1159,809
15645,1144,810
15650,1144,820
15655,1141,828
15660,1141,829
15665,1124,840
15670,1127,836
15675,1129,840
15680,1116,842
15685,1119,851
15690,1124,853
15695,1106,859
15700,1106,858
15705,1106,859
15710,1107,863
15715,1111,867
15720,1110,870
15725,1107,870
15730,1089,871
15735,1086,873
15740,1084,877
15745,1085,878
15750,1084,876
15755,1084,871
15760,1076,880
15765,1069,876
15770,1075,875
15775,1071,876
15780,1061,877
15785,1066,871
15790,1062,868
15795,1052,875
15800,1052,868
15805,1047,865
15810,1046,861
15815,1045,862
15820,1028,867
15825,1032,863
15830,1019,858
15835,1010,860
15840,1011,861
15845,1005,851
15850,989,856
15855,978,856
15860,974,852
15865,964,851
15870,942,849
15875,947,847
15880,932,850
15885,930,847
15890,918,842
15895,916,847
15900,893,846
15905,891,838
15910,867,841
15915,861,835
15920,862,836
15925,844,837
15930,830,838
15935,813,834
15940,810,838
15945,818,836
15950,799,838
15955,776,829
15960,789,823
15965,777,822
15970,775,819
15975,761,827
15980,755,822
15985,758,829
15990,757,820
15995,745,820
16000,751,822
16004,752,814
16010,739,813
16015,748,810
16020,744,811
16024,752,804
16030,757,800
16035,764,798
16040,764,791
16045,764,795
16050,775,792
16055,790,788
16059,788,782
16065,801,780
16070,803,770
16075,816,774
16079,816,768
16085,844,766
16090,851,757
16094,861,748
16100,886,750
16105,894,748
16110,900,739
16114,922,733
16120,941,732
16125,951,731
16129,960,726
16135,977,725
16140,978,724
16145,1012,712
16149,1011,716
16155,1025,712
16160,1034,708
16165,1053,703
16170,1066,703
16175,1081,701
16180,1088,700
16184,1106,697
16190,1103,698
16195,1131,693
16200,1126,697
16204,1136,703
16210,1140,700
16215,1152,700
16219,1151,696
16225,1156,705
16230,1166,704
16235,1179,716
16239,1179,710
16245,1175,715
16250,1184,713
16254,1182,722
16260,1192,729
16265,1189,728
16270,1185,733
16274,1180,738
16280,1188,740
16285,1186,746
16290,1190,756
16295,1186,761
16300,1187,761
16305,1177,770
16309,1174,775
16315,1172,780
16320,1164,792
16325,1156,785
16329,1158,797
16335,1153,798
16340,1158,803
16344,1160,807
16350,1144,813
16355,1143,822
16360,1137,826
16364,1125,832
16370,1136,836
16375,1131,837
16379,1126,844
16385,1117,846
16390,1128,852
16395,1116,854
16400,1107,854
16405,1099,867
16410,1113,863
16415,1106,866
16420,1102,865
16425,1093,872
16430,1095,866
16435,1092,871
16440,1094,872
16445,1094,873
16450,1087,878
16455,1085,877
16460,1073,872
16465,1077,876
16470,1075,874
16475,1082,878
16480,1068,868
16485,1066,866
16490,1055,872
16495,1051,877
16500,1055,864
16505,1051,872
16510,1058,860
16515,1043,865
16520,1034,861
16525,1021,860
16530,1014,863
16535,1015,856
16540,1003,860
16545,1002,858
16550,987,855
16555,983,850
16560,986,844
16565,961,856
16570,953,854
16575,947,839
16580,944,848
16585,930,844
16590,922,847
16595,907,841
16600,907,842
16605,895,840
16610,883,840
16615,868,841
16620,868,843
16625,850,835
16630,843,837
16635,842,841
16640,825,838
16645,814,835
16650,803,835
16655,802,834
16660,785,829
16665,781,825
16670,764,830
16675,769,830
16680,765,829
16685,762,823
16690,750,827
16695,747,825
16700,750,817
16705,749,814
16710,748,813
16715,748,810
16720,743,812
16725,746,805
16730,753,805
16735,757,796
16740,762,798
16745,767,790
16750,772,786
16755,776,789
16760,787,783
16765,790,781
16770,809,779
16775,809,773
16780,822,764
16785,835,765
16790,848,754
16795,860,758
16800,873,751
16805,891,751
16810,892,742
16815,904,738
16820,925,734
16825,929,729
16830,956,730
16835,968,725
16840,979,723
16845,987,714
16850,1000,708
16855,1026,717
16860,1031,708
16865,1045,706
16870,1062,702
16875,1063,701
16880,1074,702
16885,1091,701
16890,1103,702
16895,1112,695
16900,1123,697
16905,1128,701
16910,1147,696
16915,1140,697
16920,1150,700
16925,1164,701
16930,1171,700
16935,1178,708
16940,1178,704
16945,1174,715
16950,1189,718
16955,1175,717
16960,1181,727
16965,1187,726
16970,1191,735
16975,1189,732
16980,1184,741
16985,1186,746
16990,1188,752
16995,1188,754
17000,1184,760
17005,1180,760
17010,1174,772
17015,1175,771
17020,1178,783
17025,1176,784
17030,1169,797
17035,1155,798
17040,1157,804
17045,1147,807
17050,1140,813
17055,1147,820
17060,1129,822
17065,1139,828
17070,1135,833
17075,1132,840
17080,1133,843
17085,1121,850
17090,1115,852
17095,1117,858
17100,1116,854
17105,1112,858
17110,1113,858
17115,1101,868
17120,1116,867
17125,1105,867
17130,1099,870
17135,1101,870
17140,1090,875
17145,1091,873
17150,1096,877
17155,1086,878
17160,1081,872
17165,1084,877
17170,1071,873
17175,1081,877
17180,1077,878
17185,1074,877
17190,1064,875
17195,1061,870
17200,1060,868
17205,1051,869
17210,1057,865
17215,1051,859
17220,1037,867
17225,1036,863
17230,1019,861
17235,1020,857
17240,1014,862
17245,1007,857
17250,996,852
17255,985,847
17260,985,847
17265,971,853
17270,970,849
17275,950,850
17280,942,844
17285,941,848
17290,927,849
17295,914,853
17300,905,842
17305,898,843
17310,884,838
17315,868,840
17320,866,839
17325,857,843
17330,848,835
17335,844,833
17340,820,830
17345,822,839
17350,814,834
17355,791,832
17360,797,827
17365,783,830
17370,778,831
17375,763,829
17380,768,826
17385,754,824
17390,753,816
17395,751,821
17400,761,826
17405,753,819
17410,745,819
17415,745,810
17420,751,808
17425,745,812
17430,755,799
17435,758,801
17440,762,800
17445,766,795
17450,779,789
17455,777,791
17460,779,778
17465,779,782
17470,798,781
17475,816,770
17480,814,774
17485,827,765
17490,837,767
17495,847,760
17500,868,754
17505,879,750
17510,891,745
17515,908,745
17520,913,737
17525,936,735
17530,941,734
17535,967,725
17540,962,726
17545,985,720
17550,1003,716
17555,1014,715
17560,1021,708
17565,1036,708
17570,1054,702
17575,1067,706
17580,1073,705
17585,1085,699
17590,1102,700
17595,1110,699
17600,1122,699
17605,1117,700
17610,1139,697
17615,1146,696
17620,1146,701
17625,1158,704
17630,1164,699
17635,1172,707
17640,1179,708
17645,1183,713
17650,1174,716
17655,1185,718
17660,1192,719
17665,1194,727
17670,1183,730
17675,1189,731
17680,1184,733
17685,1188,744
17690,1189,748
17695,1192,747
17700,1181,753
17705,1177,765
17710,1181,765
17715,1177,776
17720,1175,779
17725,1169,783
17730,1166,790
17735,1162,795
17740,1166,801
17745,1153,803
17750,1149,808
17755,1142,816
17760,1151,819
17765,1136,822
17770,1135,833
17775,1127,830
17780,1120,837
17785,1118,844
17790,1121,849
17795,1109,853
17800,1118,859
17805,1104,863
17810,1113,858
17815,1110,862
17820,1106,862
17825,1096,869
17830,1093,870
17835,1091,873
17840,1089,877
17845,1087,877
17850,1091,873
17855,1089,876
17860,1087,873
17865,1084,878
17870,1086,876
17875,1078,878
17880,1069,877
17885,1071,874
17890,1063,873
17895,1068,868
17900,1059,865
17905,1064,871
17910,1046,868
17915,1046,866
17920,1032,863
17925,1032,862
17930,1035,862
17935,1026,861
17940,1018,864
17945,1015,860
17950,996,854
17955,989,860
17960,984,846
17965,975,851
17970,971,849
17975,954,845
17980,949,851
17985,939,846
17990,924,845
17995,921,847
18000,907,844
18005,902,841
18010,891,839
18015,887,838
18020,868,840
18025,862,840
18030,850,835
18035,833,837
18040,835,836
18045,814,834
18050,809,834
18055,794,832
18060,794,833
18065,791,829
18070,792,824
18075,773,831
18080,776,826
18085,751,822
18090,766,824
18095,751,825
18100,754,818
18105,747,819
18110,756,814
18115,745,812
18120,749,809
18125,744,813
18130,746,806
18135,748,801
18140,750,803
18145,759,794
18150,780,797
18155,776,788
18160,780,786
18165,780,785
18170,793,781
18175,808,773
18180,816,770
18185,828,770
18190,834,766
18195,850,757
18200,867,750
18205,871,750
18210,884,750
18215,898,748
18220,915,744
18225,915,737
18230,937,733
18235,948,731
18240,963,720
18245,986,717
18250,984,719
18255,1016,713
18260,1030,709
18265,1026,710
18270,1047,698
18275,1057,706
18280,1065,706
18285,1092,701
18290,1095,707
18295,1100,700
18300,1106,703
18305,1127,696
18310,1129,694
18315,1136,698
18320,1155,695
18325,1146,699
18330,1160,700
18335,1173,700
18340,1173,706
18345,1181,711
18350,1184,712
18355,1187,713
18360,1184,717
18365,1189,726
18370,1184,728
18375,1179,725
18380,1186,732
18385,1181,740
18390,1183,741
18395,1188,747
18400,1179,755
18405,1176,763
18410,1182,760
18415,1177,770
18420,1177,775
18425,1181,781
18430,1168,784
18435,1172,794
18440,1161,800
18445,1155,801
18450,1147,807
18455,1148,815
18460,1149,818
18465,1150,824
18470,1133,830
18475,1135,837
18480,1129,837
18485,1133,844
18490,1126,841
18495,1118,851
18500,1120,850
18505,1110,858
18510,1108,859
18515,1115,860
18520,1106,856
18525,1104,868
18530,1098,867
18535,1099,872
18540,1085,876
18545,1092,872
18550,1088,876
18555,1088,878
18560,1080,874
18565,1086,872
18570,1078,882
18575,1075,878
18580,1073,874
18585,1073,870
18590,1074,874
18595,1067,870
18600,1062,870
18605,1044,874
18610,1055,872
18615,1054,864
18620,1046,863
18625,1037,866
18630,1025,864
18635,1024,860
18640,1024,864
18645,1012,859
18650,1007,855
18655,990,855
18660,987,857
18665,984,852
18670,975,852
18675,959,849
18680,960,849
18685,945,848
18690,943,844
18695,922,844
18700,912,843
18705,912,843
18710,895,842
18715,889,838
18720,878,845
18725,870,839
18730,849,835
18735,846,838
18740,836,835
18745,820,834
18750,813,833
18755,813,835
18760,799,840
18765,786,824
18770,775,832
18775,776,828
18780,763,828
18785,763,822
18790,760,821
18795,759,822
18800,756,820
18805,750,818
18810,750,813
18815,750,817
18820,761,813
18825,754,810
18830,753,806
18835,747,807
18840,756,801
18845,757,799
18850,775,798
18855,760,791
18860,768,788
18865,778,789
18870,787,782
18875,796,780
18880,809,778
18885,813,770
18890,829,763
18895,842,762
18900,855,760
18905,858,751
18910,880,750
18915,884,747
18920,899,742
18925,922,732
18930,928,732
18935,941,729
18940,959,728
18945,958,720
18950,998,719
18955,986,715
18960,1022,714
18965,1027,715
18970,1037,704
18975,1050,704
18980,1071,709
18985,1081,702
18990,1082,698
18995,1100,701
19000,1111,700
19005,1119,698
19010,1121,701
19015,1141,697
19020,1136,703
19025,1146,702
19030,1161,705
19035,1161,702
19040,1170,704
19045,1179,709
19050,1183,707
19055,1176,714
19060,1181,717
19065,1196,724
19070,1182,721
19075,1190,731
19080,1188,726
19085,1194,735
19090,1195,739
19095,1186,737
19100,1186,753
19105,1188,764
19110,1184,764
19115,1178,774
19120,1177,770
19125,1170,780
19130,1173,781
19135,1166,792
19140,1170,795
19145,1155,805
19150,1156,797
19155,1153,808
19160,1145,818
19165,1145,824
19170,1140,827
19175,1150,829
19180,1128,833
19185,1119,844
19190,1121,839
19195,1113,846
19200,1122,850
19205,1114,858
19210,1129,862
19215,1113,857
19220,1102,862
19225,1101,870
19230,1112,871
19235,1099,871
19240,1097,871
19245,1103,871
19250,1093,870
19255,1086,880
19260,1086,874
19265,1085,881
19270,1079,876
19275,1080,880
19280,1067,874
19285,1078,872
19290,1070,875
19295,1070,871
19300,1067,871
19305,1063,869
19310,1052,870
19315,1039,865
19320,1051,865
19325,1048,865
19330,1034,860
19335,1029,862
19340,1014,866
19345,1011,864
19350,1003,858
19355,1006,861
19360,1001,860
19365,983,861
19370,979,851
19375,968,846
19380,964,855
19385,958,852
19390,945,848
19395,928,843
19400,919,845
19405,908,840
19410,894,844
19415,882,842
19420,879,838
19425,876,844
19430,862,835
19435,857,840
19440,836,830
19445,840,837
19450,824,829
19455,821,830
19460,799,838
19465,801,829
19470,789,832
19475,778,832
19480,777,826
19485,776,823
19490,757,824
19495,760,822
19500,769,822
19505,751,820
19510,741,812
19515,744,813
19520,748,809
19525,742,815
19530,758,814
19535,748,806
19540,746,799
19545,761,803
19550,762,793
19555,764,794
19560,767,791
19565,777,787
19570,791,778
19575,798,783
19580,808,776
19585,809,771
19590,835,769
19595,831,765
19600,844,758
19605,866,756
19610,881,748
19615,882,744
19620,889,743
19625,913,743
19630,925,739
19635,933,729
19640,948,731
19645,958,725
19650,972,718
19655,1001,719
19660,1013,715
19665,1022,711
19670,1040,709
19675,1043,711
19680,1058,705
19685,1058,702
19690,1086,701
19695,1091,698
19700,1099,700
19705,1120,698
19710,1121,701
19715,1138,694
19720,1133,701
19725,1147,701
19730,1151,700
19735,1162,699
19740,1174,700
19745,1173,708
19750,1174,713
19755,1186,718
19760,1185,714
19765,1190,716
19770,1182,725
19775,1181,723
19780,1192,729
19785,1184,734
19790,1186,741
19795,1186,742
19800,1182,750
19805,1184,756
19810,1179,760
19815,1184,762
19820,1178,766
19825,1172,778
19830,1172,784
19835,1170,785
19840,1161,786
19845,1159,800
19850,1152,805
19855,1149,805
19860,1150,810
19865,1148,817
19870,1141,822
19875,1139,821
19880,1136,833
19885,1129,835
19890,1131,838
19895,1128,845
19900,1116,856
19905,1122,851
19910,1122,858
19915,1106,858
19920,1100,865
19925,1106,858
19930,1095,862
19935,1106,869
19940,1095,871
19945,1098,880
19950,1097,873
19955,1095,875
19960,1096,877
19965,1083,874
19970,1083,881
19975,1081,880
19980,1082,875
19985,1077,869
19990,1071,871
19995,1070,869
20000,1065,874
20005,1068,869
20010,1060,868
20015,1052,872
20020,1038,863
20025,1045,862
20030,1035,860
20035,1030,870
20040,1019,862
20045,1023,860
20050,1004,861
20055,1000,855
20060,997,853
20065,986,852
20070,980,856
20075,976,848
20080,970,850
20085,957,852
20090,938,850
20095,937,848
20100,931,845
20105,916,845
20110,905,848
20115,899,842
20120,880,847
20125,878,840
20130,868,838
20135,848,839
20140,840,836
20145,837,831
20150,826,835
20155,820,833
20160,808,835
20165,787,829
20170,792,834
20175,786,834
20180,781,829
20185,764,823
20190,762,828
20195,757,828
20200,767,820
20205,753,826
20210,756,824
20215,757,813
20220,750,811
20225,751,813
20230,744,811
20235,750,807
20240,747,800
20245,762,799
20250,755,797
20255,761,796
20260,766,794
20265,767,791
20270,770,784
20275,784,782
20280,803,775
20285,808,775
20290,818,770
20295,831,768
20300,842,762
20305,849,766
20310,862,754
20315,880,753
20320,893,749
20325,903,745
20330,913,736
20335,927,735
20340,944,737
20345,952,729
20350,961,729
20355,983,725
20360,996,724
20365,1021,712
20370,1026,710
20375,1040,710
20380,1050,702
20385,1054,706
20390,1075,705
20395,1088,698
20400,1105,699
20405,1109,701
20410,1123,698
20415,1131,704
20420,1133,699
20425,1136,696
20430,1143,699
20435,1160,699
20440,1160,702
20445,1169,704
20450,1166,709
20455,1173,715
20460,1178,713
20465,1183,714
20470,1183,719
20475,1192,725
20480,1175,727
20485,1182,726
20490,1196,735
20495,1191,739
20500,1184,742
20505,1185,750
20510,1186,757
20515,1175,763
20520,1179,765
20525,1167,769
20530,1169,775
20535,1164,784
20540,1165,792
20545,1164,795
20550,1163,802
20555,1160,808
20560,1148,805
20565,1138,818
20570,1140,819
20575,1140,823
20580,1132,833
20585,1137,836
20590,1130,839
20595,1128,842
20600,1127,848
20605,1112,849
20610,1114,858
20615,1114,857
20620,1114,858
20625,1100,860
20630,1101,863
20635,1105,868
20640,1096,867
20645,1094,870
20650,1088,871
20655,1092,871
20660,1099,871
20665,1085,875
20670,1081,872
20675,1090,875
20680,1084,874
20685,1082,877
20690,1064,874
20695,1063,873
20700,1070,875
20705,1057,873
20710,1064,875
20715,1061,869
20720,1054,873
20725,1043,865
20730,1060,870
20735,1036,868
20740,1018,863
20745,1022,861
20750,1011,854
20755,1010,857
20760,1003,860
20765,999,858
20770,997,860
20775,981,848
20780,965,856
20785,961,847
20790,957,848
20795,941,850
20800,929,845
20805,925,844
20810,914,846
20815,899,840
20820,901,843
20825,878,842
20830,870,843
20835,854,833
20840,854,838
20845,849,838
20850,831,834
20855,823,830
20860,809,830
20865,816,832
20870,797,833
20875,790,832
20880,785,829
20885,776,827
20890,769,821
20895,770,826
20900,764,824
20905,756,818
20910,749,823
20915,755,820
20920,743,812
20925,745,813
20930,750,811
20935,744,802
20940,756,807
20945,758,801
20950,750,805
20955,754,796
20960,760,791
20965,771,794
20970,777,786
20975,782,783
20980,797,774
20985,807,778
20990,810,770
20995,823,768
21000,838,766
21005,848,759
21010,854,758
21015,873,753
21020,898,745
21025,893,747
21030,903,741
21035,919,736
21040,948,737
21045,952,732
21050,967,722
21055,970,718
21060,999,714
21065,1017,717
21070,1018,714
21075,1026,711
21080,1038,706
21085,1050,700
21090,1063,704
21095,1082,704
21100,1096,703
21105,1109,703
21110,1119,701
21115,1128,696
21120,1133,707
21125,1141,701
21130,1147,701
21135,1139,704
21140,1158,700
21145,1167,708
21150,1169,705
21155,1183,710
21160,1170,711
21165,1188,719
21170,1183,719
21175,1183,725
21180,1188,728
21185,1188,730
21190,1186,734
21195,1188,736
21200,1191,746
21205,1183,747
21210,1185,746
21215,1184,756
21220,1176,766
21225,1179,769
21230,1171,776
21235,1173,784
21240,1165,785
21245,1160,791
21250,1161,799
21255,1149,800
21260,1148,806
21265,1147,820
21270,1148,817
21275,1144,825
21280,1150,830
21285,1139,830
21290,1131,835
21295,1127,838
21300,1119,845
21305,1120,849
21310,1115,851
21315,1110,852
21320,1111,857
21325,1119,860
21330,1112,860
21335,1097,864
21340,1105,870
21345,1102,874
21350,1101,878
21355,1097,872
21360,1091,872
21365,1085,872
21370,1081,872
21375,1089,879
21380,1081,873
21385,1079,877
21390,1078,871
21395,1068,877
21400,1059,874
21405,1076,866
21410,1061,872
21415,1063,873
21420,1057,869
21425,1046,862
21430,1040,868
21435,1035,861
21440,1035,859
21445,1032,865
21450,1019,861
21455,1002,863
21460,1011,858
21465,997,856
21470,997,855
21475,985,858
21480,974,856
21485,967,852
21490,953,848
21495,946,852
21500,937,848
21505,934,842
21510,921,845
21515,904,840
21520,891,840
21525,888,838
21530,877,848
21535,876,844
21540,855,843
21545,854,836
21550,840,838
21555,838,837
21560,816,839
21565,807,833
21570,800,832
21575,793,835
21580,788,830
21585,784,824
21590,777,823
21595,768,824
21600,763,823
21605,765,823
21610,759,823
21615,757,815
21620,747,812
21625,752,812
21630,756,811
21635,744,807
21640,751,807
21645,755,799
21650,763,798
21655,761,801
21660,763,799
21665,762,790
21670,775,793
21675,786,786
21680,800,779
21685,798,777
21690,810,771
21695,808,772
21700,827,766
21705,835,763
21710,848,757
21715,862,756
21720,885,757
21725,888,743
21730,899,742
21735,915,737
21740,924,733
21745,948,729
21750,961,724
21755,976,720
21760,984,721
21765,1005,716
21770,1008,716
21775,1031,708
21780,1030,702
21785,1045,705
21790,1059,704
21795,1074,701
21800,1084,703
21805,1099,698
21810,1105,698
21815,1115,700
21820,1129,696
21825,1138,698
21830,1138,703
21835,1147,693
21840,1158,703
21845,1157,705
21850,1164,704
21855,1175,710
21860,1172,711
21865,1175,711
21870,1181,717
21875,1194,718
21880,1193,723
21885,1184,729
21890,1184,728
21895,1185,738
21900,1191,743
21905,1179,744
21910,1184,748
21915,1176,754
21920,1186,753
21925,1189,766
21930,1176,773
21935,1172,779
21940,1163,785
21945,1165,785
21950,1159,787
21955,1161,802
21960,1157,802
21965,1151,808
21970,1147,818
21975,1136,819
21980,1137,824
21985,1138,829
21990,1130,832
21995,1136,844
22000,1122,839
22005,1123,845
22010,1106,854
22015,1114,857
22020,1109,859
22025,1110,856
22030,1114,864
22035,1107,868
22040,1108,869
22045,1100,874
22050,1103,863
22055,1104,873
22060,1092,873
22065,1086,870
22070,1084,874
22075,1077,877
22080,1081,876
22085,1075,877
22090,1080,875
22095,1077,874
22100,1061,880
22105,1063,874
22110,1059,875
22115,1051,870
22120,1056,875
22125,1048,867
22130,1052,869
22135,1040,866
22140,1033,863
22145,1025,862
22150,1025,868
22155,1014,859
22160,1012,858
22165,1002,852
22170,999,852
22175,993,855
22180,975,850
22185,963,850
22190,959,848
22195,955,845
22200,945,844
22205,929,843
22210,919,836
22215,916,849
22220,897,833
22225,889,844
22230,881,845
22235,881,843
22240,864,836
22245,858,830
22250,848,833
22255,830,831
22260,823,839
22265,812,831
22270,815,835
22275,798,835
22280,792,831
22285,781,833
22290,782,823
22295,767,829
22300,767,830
22305,761,819
22310,753,823
22315,759,820
22320,755,819
22325,746,817
22330,753,810
22335,749,809
22340,743,805
22345,746,808
22350,748,802
22355,761,793
22360,758,796
22365,768,798
22370,782,790
22375,771,784
22380,782,783
22385,791,782
22390,802,775
22395,812,770
22400,819,768
22405,826,766
22410,849,762
22415,855,756
22420,869,753
22425,871,751
22430,888,747
22435,907,741
22440,924,735
22445,935,731
22450,944,731
22455,964,726
22460,971,719
22465,991,720
22470,1009,713
22475,1011,712
22480,1031,711
22485,1034,715
22490,1057,707
22495,1065,699
22500,1084,704
22505,1082,708
22510,1100,698
22515,1109,701
22520,1120,702
22525,1119,699
22530,1142,701
22535,1146,694
22540,1151,696
22545,1161,708
22550,1154,703
22555,1170,704
22560,1168,707
22565,1177,713
22570,1185,713
22575,1187,719
22580,1184,726
22585,1184,731
22590,1185,726
22595,1192,730
22600,1189,736
22605,1193,740
22610,1188,746
22615,1182,752
22620,1183,760
22625,1180,765
22630,1171,772
22635,1175,771
22640,1166,780
22645,1173,786
22650,1167,794
22655,1162,799
22660,1163,804
22665,1147,803
22670,1152,812
22675,1140,817
22680,1141,819
22685,1142,830
22690,1133,832
22695,1136,834
22700,1134,839
22705,1119,844
22710,1115,847
22715,1119,851
22720,1112,856
22725,1111,861
22730,1107,862
22735,1108,866
22740,1113,861
22745,1100,864
22750,1097,864
22755,1087,878
22760,1087,871
22765,1088,876
22770,1092,872
22775,1075,873
22780,1082,873
22785,1079,878
22790,1077,876
22795,1081,875
22800,1083,875
22805,1064,878
22810,1063,872
22815,1061,870
22820,1061,864
22825,1050,869
22830,1043,867
22835,1043,867
22840,1035,868
22845,1023,865
22850,1026,865
22855,1021,858
22860,1020,862
22865,1013,859
22870,1007,854
22875,983,857
22880,975,851
22885,991,854
22890,974,850
22895,963,850
22900,945,844
22905,923,848
22910,929,841
22915,919,847
22920,901,840
22925,901,843
22930,883,844
22935,879,839
22940,872,835
22945,850,841
22950,855,836
22955,841,839
22960,825,829
22965,821,835
22970,815,833
22975,801,830
22980,788,832
22985,783,830
22990,779,829
22995,777,824
23000,766,825
23005,758,829
23010,764,822
23015,756,834
23020,762,824
23025,752,816
23030,750,813
23035,753,818
23040,755,810
23045,752,812
23050,742,807
23055,751,802
23060,764,800
23065,765,795
23070,770,794
23075,776,787
23080,779,785
23085,784,786
23090,793,780
23095,812,779
23100,819,769
23105,831,760
23110,832,763
23115,848,759
23120,864,756
23125,872,756
23130,887,744
23135,902,741
23140,906,737
23145,924,732
23150,939,731
23155,956,727
23160,968,718
23165,994,716
23170,983,715
23175,1012,709
23180,1022,722
23185,1039,712
23190,1046,700
23195,1052,703
23200,1082,697
23205,1088,700
23210,1098,704
23215,1106,700
23220,1107,703
23225,1124,693
23230,1131,699
23235,1145,694
23240,1146,705
23245,1149,701
23250,1161,700
23255,1168,704
23260,1166,707
23265,1180,713
23270,1184,715
23275,1178,715
23280,1185,719
23285,1177,724
23290,1199,728
23295,1182,733
23300,1183,735
23305,1182,737
23310,1186,747
23315,1189,753
23320,1182,754
23325,1181,759
23330,1184,768
23335,1180,774
23340,1170,770
23345,1163,786
23350,1165,793
23355,1161,793
23360,1163,797
23365,1154,805
23370,1148,813
23375,1153,811
23380,1152,822
23385,1142,825
23390,1137,828
23395,1140,836
23400,1125,841
23405,1121,841
23410,1124,843
23415,1119,851
23420,1115,849
23425,1119,855
23430,1111,856
23435,1100,858
23440,1100,865
23445,1099,867
23450,1103,869
23455,1095,873
23460,1097,874
23465,1090,873
23470,1091,876
23475,1087,869
23480,1084,878
23485,1084,870
23490,1077,875
23495,1077,872
23500,1073,871
23505,1073,882
23510,1068,868
23515,1065,870
23520,1065,869
23525,1057,865
23530,1050,864
23535,1047,864
23540,1040,860
23545,1044,866
23550,1040,859
23555,1027,861
23560,1016,860
23565,1016,858
23570,1000,856
23575,1000,856
23580,983,854
23585,981,854
23590,974,851
23595,954,848
23600,943,846
23605,940,850
23610,931,849
23615,931,844
23620,917,848
23625,905,842
23630,890,844
23635,880,838
23640,872,839
23645,866,838
23650,857,839
23655,841,840
23660,841,838
23665,827,837
23670,809,832
23675,806,832
23680,795,828
23685,795,832
23690,775,828
23695,773,828
23700,777,823
23705,758,822
23710,761,828
23715,754,820
23720,747,818
23725,752,815
23730,755,816
23735,750,814
23740,749,809
23745,749,807
23750,740,805
23755,756,799
23760,755,806
23765,761,790
23770,763,790
23775,782,788
23780,778,789
23785,786,785
23790,796,778
23795,796,777
23800,819,767
23805,823,770
23810,840,764
23815,855,760
23820,854,759
23825,865,754
23830,880,747
23835,899,743
23840,910,740
23845,917,734
23850,933,734
23855,936,728
23860,955,724
23865,978,722
23870,991,723
23875,1010,716
23880,1011,713
23885,1032,710
23890,1053,706
23895,1054,706
23900,1066,707
23905,1081,704
23910,1089,702
23915,1101,703
23920,1109,703
23925,1119,698
23930,1132,698
23935,1135,698
23940,1148,695
23945,1151,703
23950,1156,707
23955,1156,699
23960,1176,706
23965,1177,711
23970,1182,711
23975,1178,716
23980,1183,710
23985,1186,726
23990,1189,727
23995,1191,730
24000,1191,736
24005,1179,740
24010,1186,737
24015,1190,749
24020,1186,746
24025,1178,763
24030,1183,764
24035,1171,765
24040,1172,774
24045,1174,773
24050,1171,787
24055,1168,795
24060,1148,792
24065,1156,800
24070,1155,802
24075,1150,813
24080,1142,817
24085,1133,820
24090,1146,828
24095,1136,832
24100,1128,843
24105,1117,842
24110,1116,840
24115,1125,851
24120,1118,851
24125,1118,859
24130,1117,861
24135,1113,865
24140,1111,865
24145,1107,868
24150,1096,868
24155,1097,870
24160,1099,869
24165,1096,872
24170,1090,876
24175,1088,875
24180,1089,874
24185,1096,877
24190,1088,871
24195,1069,871
24200,1073,877
24205,1073,875
24210,1073,872
24215,1071,870
24220,1055,870
24225,1066,871
24230,1050,870
24235,1043,866
24240,1041,869
24245,1052,870
24250,1038,861
24255,1030,856
24260,1023,866
24265,1013,862
24270,1007,857
24275,1001,859
24280,995,856
24285,981,856
24290,982,850
24295,967,848
24300,964,849
24305,953,846
24310,938,849
24315,932,848
24320,919,852
24325,912,847
24330,895,843
24335,889,842
24340,875,839
24345,871,842
24350,858,836
24355,851,840
24360,838,838
24365,821,836
24370,821,837
24375,814,842
24380,800,831
24385,784,831
24390,782,830
24395,773,829
24400,774,828
24405,759,833
24410,757,830
24415,761,826
24420,753,824
24425,750,818
24430,763,818
24435,745,813
24440,758,810
24445,746,810
24450,745,811
24455,758,802
24460,753,801
24465,747,799
24470,756,791
24475,771,790
24480,772,785
24485,781,791
24490,795,787
24495,800,783
24500,807,770
24505,804,773
24510,821,764
24515,839,764
24520,852,764
24525,869,756
24530,875,751
24535,888,752
24540,898,743
24545,918,740
24550,915,732
24555,938,733
24560,942,723
24565,965,720
24570,982,715
24575,1000,715
24580,1010,712
24585,1026,714
24590,1030,707
24595,1055,703
24600,1061,707
24605,1063,700
24610,1090,701
24615,1093,697
24620,1106,699
24625,1115,702
24630,1124,699
24635,1142,697
24640,1141,698
24645,1149,698
24650,1165,700
24655,1159,703
24660,1158,700
24665,1172,709
24670,1178,705
24675,1187,713
24680,1176,716
24685,1181,722
24690,1184,724
24695,1189,727
24700,1185,737
24705,1194,738
24710,1193,743
24715,1188,746
24720,1190,754
24725,1186,752
24730,1179,763
24735,1188,767
24740,1174,777
24745,1164,778
24750,1166,783
24755,1152,790
24760,1169,795
24765,1160,793
24770,1165,805
24775,1152,811
24780,1156,811
24785,1144,820
24790,1141,822
24795,1143,833
24800,1139,836
24805,1132,839
24810,1127,843
24815,1130,845
24820,1122,853
24825,1113,850
24830,1117,857
24835,1108,861
24840,1111,862
24845,1108,862
24850,1094,865
24855,1096,868
24860,1096,867
24865,1095,874
24870,1094,877
24875,1082,871
24880,1080,874
24885,1085,877
24890,1085,876
24895,1080,873
24900,1081,877
24905,1072,874
24910,1076,876
24915,1060,866
24920,1065,873
24925,1061,870
24930,1058,876
24935,1059,870
24940,1044,866
24945,1040,868
24950,1040,864
24955,1033,862
24960,1034,865
24965,1012,859
24970,1005,862
24975,1009,856
24980,991,859
24985,980,852
24990,978,855
24995,974,859
25000,965,850
25005,950,847
25010,938,845
25015,941,838
25020,928,841
25025,902,845
25030,914,849
25035,903,842
25040,896,841
25045,873,841
25050,853,837
25055,850,832
25060,844,841
25065,832,833
25070,829,833
25075,811,832
25080,801,830
25085,794,839
25090,788,827
25095,785,828
25100,780,828
25105,773,824
25110,766,821
25115,755,824
25120,756,818
25125,741,824
25130,756,815
25135,750,820
25140,744,811
25145,745,814
25150,754,811
25155,756,804
25160,745,800
25165,751,801
25170,763,802
25175,763,790
25180,761,790
25185,786,781
25190,790,786
25195,799,781
25200,809,780
25205,808,770
25210,826,771
25215,833,769
25220,843,761
25225,854,755
25230,875,753
25235,885,751
25240,887,741
25245,904,740
25250,921,742
25255,933,729
25260,950,725
25265,963,727
25270,975,722
25275,988,725
25280,1005,709
25285,1016,711
25290,1033,712
25295,1045,705
25300,1055,703
25305,1078,707
25310,1075,699
25315,1092,700
25320,1097,703
25325,1107,698
25330,1119,698
25335,1132,698
25340,1135,696
25345,1145,695
25350,1151,701
25355,1155,708
25360,1174,704
25365,1168,710
25370,1179,712
25375,1174,715
25380,1182,714
25385,1177,718
25390,1180,720
25395,1196,724
25400,1188,724
25405,1188,735
25410,1184,740
25415,1183,742
25420,1178,750
25425,1174,750
25430,1190,752
25435,1183,767
25440,1180,767
25445,1175,771
25450,1173,776
25455,1160,784
25460,1172,789
25465,1158,799
25470,1156,806
25475,1158,810
25480,1148,811
25485,1138,818
25490,1139,822
25495,1144,828
25500,1138,828
25505,1125,835
25510,1117,841
25515,1125,844
25520,1123,847
25525,1117,852
25530,1118,859
25535,1113,860
25540,1108,858
25545,1111,862
25550,1097,868
25555,1106,869
25560,1093,874
25565,1103,869
25570,1087,870
25575,1092,871
25580,1087,872
25585,1095,875
25590,1086,877
25595,1082,868
25600,1079,873
25605,1080,872
25610,1073,873
25615,1073,872
25620,1074,872
25625,1068,866
25630,1056,870
25635,1053,869
25640,1049,866
25645,1045,865
25650,1034,864
25655,1040,865
25660,1035,859
25665,1012,859
25670,1011,857
25675,1010,859
25680,998,852
25685,994,858
25690,989,850
25695,977,854
25700,972,849
25705,955,846
25710,946,851
25715,941,845
25720,930,845
25725,912,844
25730,910,838
25735,905,842
25740,893,838
25745,882,839
25750,864,843
25755,853,836
25760,855,836
25765,840,835
25770,825,838
25775,821,835
25780,817,831
25785,800,832
25790,794,834
25795,797,825
25800,786,827
25805,776,826
25810,764,825
25815,770,826
25820,759,820
25825,762,822
25830,752,820
25835,748,818
25840,753,813
25845,750,815
25850,748,813
25855,743,810
25860,750,801
25865,754,801
25870,765,801
25875,756,796
25880,768,793
25885,787,794
25890,783,786
25895,790,782
25900,792,785
25905,809,777
25910,824,773
25915,833,764
25920,834,762
25925,849,763
25930,859,756
25935,876,751
25940,886,751
25945,903,740
25950,916,738
25955,934,734
25960,946,730
25965,952,731
25970,974,719
25975,986,723
25980,993,714
25985,1010,719
25990,1027,714
25995,1033,707
26000,1048,706
26005,1066,703
26010,1071,701
26015,1088,700
26020,1094,698
26025,1107,695
26030,1118,697
26035,1131,701
26040,1129,697
26045,1142,704
26050,1146,701
26055,1148,703
26060,1161,705
26065,1164,704
26070,1175,705
26075,1182,707
26080,1185,714
26085,1185,718
26090,1184,715
26095,1181,724
26100,1189,727
26105,1189,731
26110,1191,732
26115,1187,735
26120,1193,747
26125,1187,749
26130,1187,759
26135,1189,761
26140,1175,764
26145,1174,770
26150,1173,776
26155,1167,782
26160,1161,788
26165,1155,794
26170,1158,799
26175,1155,805
26180,1154,807
26185,1146,818
26190,1148,824
26195,1135,823
26200,1138,824
26205,1123,833
26210,1136,836
26215,1133,842
26220,1120,847
26225,1117,850
26230,1121,852
26235,1114,856
26240,1111,857
26245,1110,862
26250,1106,865
26255,1101,870
26260,1100,868
26265,1087,869
26270,1094,871
26275,1101,875
26280,1093,878
26285,1093,877
26290,1093,877
26295,1081,871
26300,1080,878
26305,1090,872
26310,1078,873
26315,1072,873
26320,1062,876
26325,1065,874
26330,1054,867
26335,1051,869
26340,1057,870
26345,1040,865
26350,1038,865
26355,1042,867
26360,1025,866
26365,1024,859
26370,1021,860
26375,1011,855
26380,999,857
26385,991,856
26390,987,857
26395,971,849
26400,966,849
26405,964,845
26410,948,847
26415,947,849
26420,925,850
26425,924,847
26430,916,842
26435,897,852
26440,889,849
26445,879,840
26450,868,844
26455,857,840
26460,855,836
26465,841,838
26470,820,834
26475,818,836
26480,821,831
26485,810,833
26490,795,828
26495,790,835
26500,784,827
26505,770,831
26510,778,821
26515,761,830
26520,762,823
26525,747,822
26530,758,822
26535,749,815
26540,744,817
26545,751,814
26550,737,811
26555,748,806
26560,751,800
26565,756,805
26570,746,807
26575,751,797
26580,769,794
26585,773,792
26590,772,780
26595,787,778
26600,798,782
26605,801,778
26610,811,775
26615,823,771
26620,830,761
26625,836,764
26630,848,758
26635,872,749
26640,884,753
26645,882,747
26650,901,741
26655,921,739
26660,933,725
26665,951,729
26670,957,730
26675,972,724
26680,991,720
26685,1002,714
26690,1012,713
26695,1024,711
26700,1033,707
26705,1044,704
26710,1059,703
26715,1075,706
26720,1091,695
26725,1087,702
26730,1112,702
26735,1109,692
26740,1125,692
26745,1142,698
26750,1148,701
26755,1160,703
26760,1158,705
26765,1168,698
26770,1173,706
26775,1173,708
26780,1178,715
26785,1182,712
26790,1184,715
26795,1185,723
26800,1182,727
26805,1186,725
26810,1197,734
26815,1188,741
26820,1186,742
26825,1188,748
26830,1187,749
26835,1182,754
26840,1179,770
26845,1170,767
26850,1171,774
26855,1173,779
26860,1171,788
26865,1163,788
26870,1166,794
26875,1161,795
26880,1157,805
26885,1160,813
26890,1138,820
26895,1142,822
26900,1139,826
26905,1137,834
26910,1133,838
26915,1129,842
26920,1129,847
26925,1111,849
26930,1115,851
26935,1120,855
26940,1103,854
26945,1114,858
26950,1104,864
26955,1103,870
26960,1097,868
26965,1094,868
26970,1096,874
26975,1099,871
26980,1080,876
26985,1089,879
26990,1091,876
26995,1089,875
27000,1086,874
27005,1079,879
27010,1069,877
27015,1070,870
27020,1071,868
27025,1060,877
27030,1068,865
27035,1059,875
27040,1053,870
27045,1047,873
27050,1048,870
27055,1030,862
27060,1043,860
27065,1025,863
27070,1020,858
27075,1012,859
27080,1009,859
27085,1004,850
27090,988,852
27095,990,850
27100,979,854
27105,966,850
27110,957,851
27115,953,851
27120,946,845
27125,924,844
27130,917,840
27135,913,841
27140,893,841
27145,897,837
27150,876,841
27155,871,839
27160,856,833
27165,851,838
27170,839,833
27175,825,834
27180,820,836
27185,813,837
27190,797,831
27195,795,831
27200,788,831
27205,776,831
27210,779,829
27215,776,823
27220,761,825
27225,761,818
27230,765,822
27235,741,820
27240,744,816
27245,747,815
27250,744,811
27255,741,813
27260,753,808
27265,752,806
27270,745,805
27275,758,802
27280,750,795
27285,767,791
27290,777,788
27295,778,788
27300,778,783
27305,800,778
27310,804,773
27315,819,768
27320,824,767
27325,838,768
27330,842,757
27335,868,754
27340,873,753
27345,881,749
27350,900,746
27355,918,738
27360,934,734
27365,937,728
27370,955,721
27375,965,724
27380,986,720
27385,987,721
27390,1015,716
27395,1020,711
27400,1030,708
27405,1051,704
27410,1056,711
27415,1070,702
27420,1079,704
27425,1085,698
27430,1103,700
27435,1120,696
27440,1115,695
27445,1130,700
27450,1138,699
27455,1143,702
27460,1167,702
27465,1160,702
27470,1169,702
27475,1173,710
27480,1177,708
27485,1180,708
27490,1189,721
27495,1194,724
27500,1193,721
27505,1182,725
27510,1195,728
27515,1188,734
27520,1184,744
27525,1191,745
27530,1178,752
27535,1188,757
27540,1184,758
27545,1179,766
27550,1174,770
27555,1178,773
27560,1176,782
27565,1171,787
27570,1169,787
27575,1162,802
27580,1159,809
27585,1153,804
27590,1146,810
27595,1147,818
27600,1144,826
27605,1129,824
27610,1131,834
27615,1129,842
27620,1121,840
27625,1126,845
27630,1120,854
27635,1112,854
27640,1108,862
27645,1109,861
27650,1106,856
27655,1097,862
27660,1101,868
27665,1114,872
27670,1100,868
27675,1097,869
27680,1086,871
27685,1088,873
27690,1087,877
27695,1088,875
27700,1081,873
27705,1083,878
27710,1084,876
27715,1076,873
27720,1076,875
27725,1067,872
27730,1057,873
27735,1062,873
27740,1069,867
27745,1056,871
27750,1042,872
27755,1041,863
27760,1029,871
27765,1027,861
27770,1015,864
27775,1022,860
27780,1017,862
27785,999,857
27790,994,855
27795,989,857
27800,976,860
27805,971,851
27810,958,845
27815,953,848
27820,939,846
27825,940,844
27830,917,846
27835,922,843
27840,905,845
27845,891,839
27850,888,842
27855,879,842
27860,854,839
27865,854,833
27870,839,841
27875,842,833
27880,820,839
27885,820,828
27890,808,835
27895,801,835
27900,793,832
27905,782,822
27910,775,826
27915,769,827
27920,765,826
27925,760,820
27930,755,822
27935,751,817
27940,750,814
27945,749,814
27950,746,813
27955,744,811
27960,751,810
27965,747,808
27970,757,802
27975,757,804
27980,771,801
27985,766,799
27990,774,791
27995,784,784
28000,781,780
28005,792,781
28010,814,778
28015,809,773
28020,822,766
28025,832,763
28030,845,761
28035,858,755
28040,873,749
28045,882,751
28050,885,740
28055,906,739
28060,920,738
28065,924,735
28070,939,735
28075,967,721
28080,978,722
28085,985,714
28090,1001,717
28095,1015,715
28100,1021,709
28105,1048,712
28110,1050,704
28115,1071,704
28120,1081,702
28125,1084,699
28130,1088,698
28135,1111,696
28140,1131,700
28145,1123,693
28150,1130,705
28155,1146,700
28160,1158,704
28165,1155,707
28170,1158,704
28175,1171,709
28180,1174,714
28185,1184,711
28190,1173,716
28195,1185,715
28200,1184,721
28205,1180,721
28210,1190,729
28215,1194,737
28220,1188,734
28225,1186,744
28230,1187,748
28235,1185,748
28240,1180,760
28245,1182,766
28250,1181,770
28255,1174,770
28260,1176,782
28265,1171,779
28270,1168,784
28275,1161,794
28280,1164,807
28285,1159,805
28290,1156,812
28295,1148,815
28300,1142,822
28305,1137,823
28310,1141,832
28315,1138,831
28320,1130,838
28325,1123,845
28330,1116,845
28335,1121,852
28340,1115,851
28345,1120,860
28350,1112,856
28355,1104,865
28360,1101,865
28365,1098,869
28370,1096,870
28375,1094,873
28380,1094,871
28385,1093,872
28390,1102,876
28395,1090,871
28400,1084,872
28405,1078,873
28410,1077,872
28415,1078,875
28420,1076,871
28425,1062,875
28430,1071,870
28435,1061,877
28440,1053,878
28445,1056,870
28450,1046,863
28455,1052,866
28460,1040,868
28465,1033,870
28470,1031,867
28475,1016,858
28480,1009,858
28485,1007,858
28490,1001,859
28495,991,853
28500,982,852
28505,973,854
28510,974,851
28515,964,851
28520,955,851
28525,939,845
28530,922,847
28535,934,841
28540,919,843
28545,897,846
28550,895,846
28555,875,842
28560,877,840
28565,853,837
28570,846,838
28575,837,834
28580,831,833
28585,821,834
28590,803,833
28595,808,834
28600,793,837
28605,790,823
28610,782,828
28615,785,833
28620,772,825
28625,765,827
28630,761,827
28635,758,823
28640,756,820
28645,752,817
28650,747,816
28655,742,813
28660,751,816
28665,749,806
28670,751,801
28675,760,808
28680,758,801
28685,762,797
28690,774,793
28695,779,789
28700,775,788
28705,772,781
28710,798,778
28715,804,772
28720,819,763
28725,830,770
28730,825,761
28735,844,755
28740,861,756
28745,878,748
28750,887,753
28755,895,743
28760,903,739
28765,924,736
28770,941,732
28775,945,726
28780,965,729
28785,978,715
28790,988,718
28795,1007,717
28800,1012,711
28805,1032,707
28810,1039,709
28815,1056,711
28820,1066,700
28825,1074,699
28830,1097,700
28835,1097,697
28840,1110,699
28845,1123,695
28850,1127,699
28855,1138,697
28860,1149,702
28865,1157,700
28870,1159,700
28875,1165,706
28880,1174,704
28885,1177,707
28890,1181,715
28895,1183,711
28900,1193,722
28905,1186,727
28910,1180,724
28915,1191,724
28920,1193,732
28925,1186,740
28930,1183,746
28935,1183,750
28940,1181,749
28945,1184,762
28950,1177,768
28955,1177,771
28960,1178,770
28965,1172,774
28970,1159,783
28975,1161,790
28980,1158,799
28985,1155,802
28990,1150,810
28995,1137,814
29000,1145,818
29005,1138,824
29010,1137,829
29015,1125,835
29020,1123,838
29025,1126,842
29030,1126,847
29035,1109,848
29040,1125,853
29045,1114,850
29050,1120,862
29055,1108,868
29060,1106,860
29065,1103,865
29070,1100,869
29075,1098,875
29080,1094,870
29085,1084,871
29090,1082,872
29095,1098,875
29100,1076,877
29105,1091,877
29110,1085,873
29115,1085,872
29120,1070,873
29125,1076,871
29130,1072,872
29135,1069,882
29140,1060,870
29145,1055,871
29150,1046,871
29155,1036,867
29160,1050,868
29165,1037,861
29170,1035,858
29175,1027,865
29180,1014,860
29185,1008,858
29190,1007,859
29195,1001,850
29200,998,857
29205,988,854
29210,971,845
29215,962,853
29220,960,855
29225,942,851
29230,936,845
29235,931,843
29240,921,842
29245,905,840
29250,903,843
29255,890,839
29260,874,837
29265,864,838
29270,861,836
29275,844,838
29280,833,834
29285,831,834
29290,808,838
29295,810,832
29300,804,830
29305,796,830
29310,778,830
29315,778,824
29320,770,826
29325,768,828
29330,770,821
29335,754,822
29340,751,820
29345,756,824
29350,754,811
29355,748,819
29360,746,814
29365,748,810
29370,742,800
29375,753,807
29380,754,797
29385,756,796
29390,774,802
29395,769,793
29400,771,786
29405,789,787
29410,781,779
29415,795,778
29420,810,775
29425,815,771
29430,824,761
29435,840,759
29440,860,758
29445,865,754
29450,869,756
29455,884,746
29460,908,740
29465,909,740
29470,922,731
29475,946,733
29480,956,726
29485,974,722
29490,980,722
29495,998,717
29500,1018,710
29505,1031,705
29510,1038,708
29515,1051,709
29520,1065,703
29525,1075,699
29530,1083,703
29535,1100,697
29540,1101,702
29545,1116,704
29550,1135,699
29555,1132,698
29560,1147,698
29565,1150,699
29570,1162,700
29575,1159,704
29580,1170,706
29585,1177,705
29590,1177,713
29595,1184,712
29600,1183,719
29605,1193,718
29610,1188,727
29615,1193,725
29620,1184,728
29625,1177,733
29630,1180,733
29635,1189,746
29640,1183,754
29645,1179,757
29650,1174,767
29655,1170,768
29660,1172,775
29665,1170,778
29670,1175,783
29675,1167,790
29680,1164,793
29685,1156,801
29690,1155,807
29695,1144,816
29700,1145,819
29705,1135,823
29710,1138,823
29715,1149,830
29720,1134,835
29725,1118,832
29730,1115,843
29735,1124,844
29740,1123,854
29745,1119,855
29750,1105,855
29755,1103,855
29760,1109,865
29765,1098,866
29770,1108,866
29775,1105,868
29780,1105,871
29785,1098,876
29790,1090,868
29795,1090,873
29800,1093,875
29805,1089,874
29810,1080,876
29815,1078,875
29820,1077,879
29825,1070,877
29830,1072,874
29835,1059,876
29840,1060,872
29845,1061,871
29850,1051,868
29855,1056,867
29860,1043,873
29865,1042,860
29870,1025,869
29875,1028,863
29880,1024,860
29885,1016,860
29890,1001,853
29895,1005,858
29900,998,854
29905,985,854
29910,983,851
29915,961,853
29920,949,846
29925,947,846
29930,945,839
29935,930,844
29940,919,848
29945,907,842
29950,898,840
29955,890,842
29960,884,845
29965,867,838
29970,862,840
29975,851,835
29980,846,839
29985,826,840
29990,833,836
29995,816,835
30000,802,834
30005,798,834
30010,781,829
30015,773,828
30020,776,827
30025,765,827
30030,768,825
30035,755,821
30040,752,822
30045,742,822
30050,739,817
30055,743,813
30060,750,820
30065,745,817
30070,753,806
30075,751,802
30080,748,803
30085,762,800
30090,759,799
30095,763,788
30100,770,791
30105,776,785
30110,780,783
30115,800,785
30120,806,775
30125,818,770
30130,837,768
30135,835,763
30140,855,761
30145,856,759
30150,864,751
30155,880,751
30160,900,742
30165,906,738
30170,914,737
30175,933,732
30180,949,720
30185,970,718
30190,976,720
30195,987,719
30200,1015,713
30205,1021,714
30210,1031,708
30215,1045,712
30220,1053,707
30225,1070,703
30230,1086,700
30235,1092,701
30240,1106,697
30245,1112,704
30250,1127,703
30255,1126,699
30260,1144,703
30265,1151,696
30270,1156,696
30275,1160,706
30280,1157,705
30285,1170,705
30290,1174,711
30295,1172,713
30300,1172,720
30305,1182,721
30310,1178,723
30315,1185,722
30320,1181,734
30325,1192,735
30330,1193,738
30335,1187,741
30340,1184,753
30345,1182,754
30350,1186,762
30355,1181,761
30360,1176,768
30365,1170,775
30370,1168,778
30375,1160,794
30380,1162,788
30385,1166,801
30390,1155,806
30395,1151,807
30400,1148,814
30405,1144,815
30410,1133,824
30415,1137,833
30420,1133,832
30425,1134,835
30430,1130,848
30435,1126,841
30440,1131,854
30445,1120,859
30450,1103,858
30455,1115,858
30460,1112,859
30465,1107,858
30470,1103,866
30475,1115,868
30480,1093,870
30485,1098,873
30490,1100,865
30495,1096,875
30500,1086,870
30505,1090,876
30510,1070,874
30515,1080,877
30520,1075,879
30525,1063,871
30530,1076,874
30535,1069,874
30540,1064,871
30545,1064,867
30550,1053,874
30555,1059,867
30560,1052,870
30565,1047,867
30570,1031,862
30575,1034,869
30580,1034,862
30585,1022,860
30590,1014,860
30595,1001,854
30600,1000,862
30605,989,856
30610,980,857
30615,966,846
30620,965,855
30625,955,841
30630,941,850
30635,932,851
30640,927,845
30645,915,842
30650,900,846
30655,889,841
30660,870,838
30665,869,838
30670,866,840
30675,854,838
30680,852,836
30685,839,839
30690,823,830
30695,827,834
30700,805,831
30705,806,834
30710,787,829
30715,783,831
30720,778,830
30725,770,824
30730,767,827
30735,757,826
30740,761,821
30745,758,821
30750,755,820
30755,747,818
30760,742,813
30765,745,816
30770,746,806
30775,752,803
30780,752,800
30785,756,803
30790,754,799
30795,761,792
30800,771,793
30805,770,786
30810,789,792
30815,791,779
30820,788,781
30825,810,775
30830,815,768
30835,827,764
30840,845,760
30845,847,756
30850,864,756
30855,878,751
30860,888,750
30865,897,743
30870,922,734
30875,931,730
30880,948,731
30885,957,724
30890,971,722
30895,993,717
30900,1003,714
30905,1010,715
30910,1022,710
30915,1041,709
30920,1056,708
30925,1056,707
30930,1080,701
30935,1099,707
30940,1089,693
30945,1118,699
30950,1110,698
30955,1126,701
30960,1130,698
30965,1143,703
30970,1143,701
30975,1148,703
30980,1156,709
30985,1178,705
30990,1172,710
30995,1169,706
31000,1181,714
31005,1181,715
31010,1184,720
31015,1183,723
31020,1188,727
31025,1188,729
31030,1195,739
31035,1188,743
31040,1190,744
31045,1177,745
31050,1183,759
31055,1183,761
31060,1175,765
31065,1177,771
31070,1172,780
31075,1176,783
31080,1161,787
31085,1156,796
31090,1156,797
31095,1151,808
31100,1153,810
31105,1140,816
31110,1150,820
31115,1145,823
31120,1140,828
31125,1133,829
31130,1131,841
31135,1131,845
31140,1120,850
31145,1123,851
31150,1115,854
31155,1106,859
31160,1114,862
31165,1103,863
31170,1099,864
31175,1104,868
31180,1106,870
31185,1096,868
31190,1103,872
31195,1085,874
31200,1089,878
31205,1082,875
31210,1083,874
31215,1088,876
31220,1070,877
31225,1081,879
31230,1076,873
31235,1067,876
31240,1066,876
31245,1059,875
31250,1059,866
31255,1060,870
31260,1051,870
31265,1041,863
31270,1041,874
31275,1031,865
31280,1034,862
31285,1023,861
31290,1011,861
31295,1010,858
31300,1000,856
31305,993,857
31310,978,855
31315,979,849
31320,979,850
31325,960,849
31330,948,854
31335,941,851
31340,931,845
31345,920,850
31350,913,844
31355,905,843
31360,894,839
31365,879,839
31370,869,840
31375,864,842
31380,853,843
31385,837,838
31390,827,840
31395,827,836
31400,811,839
31405,810,831
31410,793,832
31415,787,830
31420,785,828
31425,778,829
31430,758,826
31435,759,821
31440,758,825
31445,744,821
31450,751,816
31455,743,817
31460,748,815
31465,750,817
31470,758,815
31475,745,807
31480,755,802
31485,748,804
31490,756,798
31495,762,798
31500,763,793
31505,773,794
31510,784,788
31515,781,786
31520,795,773
31525,802,775
31530,812,774
31535,824,768
31540,833,765
31545,839,756
31550,852,758
31555,873,749
31560,884,751
31565,889,743
31570,912,738
31575,921,737
31580,941,730
31585,950,728
31590,966,721
31595,984,719
31600,993,720
31605,1004,711
31610,1025,718
31615,1029,707
31620,1051,709
31625,1057,709
31630,1060,706
31635,1080,702
31640,1095,704
31645,1110,701
31650,1108,702
31655,1125,700
31660,1133,690
31665,1146,703
31670,1144,699
31675,1149,696
31680,1160,703
31685,1163,704
31690,1158,708
31695,1177,713
31700,1180,710
31705,1188,716
31710,1189,717
31715,1186,719
31720,1183,724
31725,1195,735
31730,1189,732
31735,1178,741
31740,1193,745
31745,1187,749
31750,1188,750
31755,1180,757
31760,1187,765
31765,1186,772
31770,1170,773
31775,1175,778
31780,1175,780
31785,1166,796
31790,1160,793
31795,1161,800
31800,1153,804
31805,1158,816
31810,1147,817
31815,1136,824
31820,1137,830
31825,1134,839
31830,1137,838
31835,1123,836
31840,1124,849
31845,1123,853
31850,1107,856
31855,1103,859
31860,1110,857
31865,1112,866
31870,1106,864
31875,1110,868
31880,1109,865
31885,1094,872
31890,1093,869
31895,1096,877
31900,1091,871
31905,1086,875
31910,1093,873
31915,1091,874
31920,1075,877
31925,1078,870
31930,1070,874
31935,1070,875
31940,1064,878
31945,1066,873
31950,1060,871
31955,1068,870
31960,1048,865
31965,1051,870
31970,1034,874
31975,1031,862
31980,1025,862
31985,1020,862
31990,1023,861
31995,1009,857
32000,1000,853
32005,998,856
32009,997,855
32015,986,851
32020,967,852
32025,956,851
32030,955,850
32034,951,849
32040,937,845
32045,932,840
32049,920,843
32055,910,842
32060,890,842
32064,886,843
32070,887,839
32075,866,841
32080,855,839
32085,842,838
32090,840,832
32095,826,835
32100,814,838
32104,813,833
32110,800,835
32115,807,829
32119,788,832
32125,779,823
32130,768,826
32134,773,829
32140,764,827
32145,752,824
32150,744,815
32155,755,820
32159,755,814
32165,744,816
32170,748,814
32174,746,806
32180,749,807
32185,759,808
32189,751,802
32195,750,805
32200,768,795
32205,770,795
32210,766,794
32215,772,784
32220,791,778
32225,798,778
32229,809,768
32235,816,775
32240,842,767
32244,842,760
32250,850,762
32255,861,757
32259,875,747
32265,884,743
32270,903,745
32275,908,736
32280,926,729
32284,946,728
32290,964,726
32295,969,726
32299,992,720
32305,1002,718
32310,1011,716
32314,1023,708
32320,1035,704
32325,1055,710
32330,1063,707
32335,1071,705
32340,1075,698
32345,1091,696
32350,1106,698
32354,1114,698
32360,1137,697
32365,1134,698
32369,1137,694
32375,1159,698
32380,1154,704
32384,1161,705
32390,1168,708
32395,1173,717
32400,1178,714
32405,1176,713
32409,1176,714
32415,1186,722
32420,1192,730
32424,1186,732
32430,1184,727
32435,1190,735
32439,1181,738
32445,1184,745
32450,1183,752
32455,1184,754
32460,1188,762
32465,1170,768
32470,1172,770
32475,1175,776
32479,1167,786
32485,1169,789
32490,1160,798
32494,1151,798
32500,1161,807
32505,1150,813
32509,1150,821
32515,1143,819
32520,1134,828
32525,1145,832
32530,1129,829
32534,1136,840
32540,1122,842
32545,1123,841
32549,1121,849
32555,1111,849
32560,1104,857
32564,1107,854
32570,1108,864
32575,1099,870
32580,1100,873
32585,1096,871
32590,1089,866
32595,1093,870
32600,1089,872
32604,1088,871
32610,1092,876
32615,1086,878
32619,1079,880
32625,1073,884
32630,1077,880
32634,1078,879
32640,1077,875
32645,1060,871
32650,1053,873
32655,1067,873
32659,1053,870
32665,1055,871
32670,1051,875
32674,1046,874
32680,1044,867
32685,1036,860
32689,1027,862
32695,1013,859
32700,1011,860
32705,1003,861
32710,991,858
32715,987,859
32720,973,853
32725,970,857
32729,951,848
32735,948,850
32740,945,848
32744,934,851
32750,922,845
32755,920,844
32759,904,845
32765,890,843
32770,884,841
32775,870,842
32780,869,840
32785,849,843
32790,841,833
32795,834,839
32800,819,836
32805,819,830
32810,804,836
32815,795,830
32820,790,829
32825,785,825
32830,780,829
32835,772,823
32840,761,824
32845,759,823
32850,756,822
32855,760,821
32860,763,819
32865,742,817
32870,749,816
32875,750,813
32880,744,809
32885,743,800
32890,752,805
32895,764,803
32900,765,795
32905,757,793
32910,779,786
32915,775,787
32920,791,779
32925,797,778
32930,805,775
32935,813,772
32940,820,769
32945,830,766
32950,845,758
32955,856,756
32960,869,755
32965,879,752
32970,895,740
32975,899,733
32980,924,731
32985,941,732
32990,959,731
32995,964,719
33000,979,718
33005,992,722
33010,996,711
33015,1021,711
33020,1028,714
33025,1040,706
33030,1067,703
33035,1064,702
33040,1079,700
33045,1088,699
33050,1100,701
33055,1110,694
33060,1122,697
33065,1135,698
33070,1134,698
33075,1155,696
33080,1154,702
33085,1156,701
33090,1172,709
33095,1172,705
33100,1186,709
33105,1179,712
33110,1183,708
33115,1189,720
33120,1189,723
33125,1190,730
33130,1178,723
33135,1199,726
33140,1189,736
33145,1192,743
33150,1183,747
33155,1187,756
33160,1181,760
33165,1179,764
33170,1172,763
33175,1169,771
33180,1163,785
33185,1170,786
33190,1161,790
33195,1165,798
33200,1155,803
33205,1158,808
33210,1153,816
33215,1144,818
33220,1139,823
33225,1143,822
33230,1131,829
33235,1131,837
33240,1111,841
33245,1123,843
33250,1121,846
33255,1125,854
33260,1111,854
33265,1106,855
33270,1106,863
33275,1104,860
33280,1103,867
33285,1101,867
33290,1097,866
33295,1097,869
33300,1091,873
33305,1085,877
33310,1087,876
33315,1082,880
33320,1087,876
33325,1088,878
33330,1078,874
33335,1077,877
33340,1062,872
33345,1068,874
33350,1070,874
33355,1071,875
33360,1053,869
33365,1056,872
33370,1050,868
33375,1046,863
33380,1033,866
33385,1035,860
33390,1016,863
33395,1028,863
33400,1014,859
33405,1001,860
33410,994,856
33415,998,857
33420,991,849
33425,977,853
33430,963,851
33435,954,847
33440,952,849
33445,936,844
33450,926,844
33455,920,841
33460,911,841
33465,896,842
33470,888,841
33475,877,840
33480,869,834
33485,853,842
33490,852,835
33495,838,836
33500,828,834
33505,819,836
33510,800,838
33515,795,831
33520,786,835
33525,789,836
33530,785,831
33535,761,824
33540,768,827
33545,762,827
33550,753,821
33555,752,815
33560,755,822
33565,743,815
33570,744,819
33575,746,818
33580,747,811
33585,743,800
33590,757,810
33595,747,805
33600,762,803
33605,757,799
33610,766,791
33615,772,782
33620,781,789
33625,785,785
33630,796,780
33635,800,774
33640,810,773
33645,833,766
33650,835,761
33655,851,762
33660,864,753
33665,871,748
33670,889,748
33675,900,741
33680,924,743
33685,940,734
33690,954,725
33695,956,728
33700,970,727
33705,977,722
33710,997,713
33715,1011,712
33720,1027,715
33725,1036,712
33730,1048,703
33735,1065,705
33740,1078,700
33745,1090,700
33750,1103,704
33755,1096,700
33760,1119,702
33765,1128,695
33770,1138,701
33775,1141,700
33780,1155,700
33785,1157,701
33790,1164,702
33795,1174,709
33800,1170,709
33805,1184,710
33810,1176,719
33815,1183,715
33820,1185,718
33825,1191,722
33830,1191,725
33835,1190,732
33840,1188,735
33845,1187,740
33850,1185,744
33855,1186,749
33860,1186,753
33865,1180,761
33870,1185,759
33875,1173,773
33880,1174,776
33885,1179,779
33890,1164,785
33895,1165,793
33900,1153,797
33905,1150,804
33910,1149,813
33915,1161,822
33920,1146,816
33925,1138,821
33930,1128,827
33935,1131,835
33940,1135,837
33945,1128,845
33950,1111,845
33955,1117,849
33960,1111,850
33965,1115,856
33970,1105,857
33975,1117,868
33980,1108,866
33985,1096,865
33990,1107,870
33995,1092,873
34000,1096,869
34005,1083,874
34010,1084,871
34015,1094,871
34020,1094,871
34025,1084,874
34030,1072,875
34035,1077,874
34040,1075,871
34045,1068,877
34050,1068,872
34055,1057,878
34060,1054,868
34065,1057,863
34070,1054,869
34075,1039,865
34080,1038,863
34085,1035,863
34090,1025,865
34095,1027,861
34100,1011,862
34105,1010,857
34110,1000,862
34115,992,853
34120,985,854
34125,985,848
34130,973,852
34135,955,852
34140,945,852
34145,943,851
34150,937,847
34155,915,850
34160,914,841
34165,897,846
34170,900,839
34175,884,843
34180,873,834
34185,859,839
34190,859,844
34195,837,835
34200,833,836
34205,832,830
34210,821,839
34215,800,832
34220,795,830
34225,789,830
34230,782,831
34235,778,827
34240,768,828
34245,766,824
34250,760,831
34255,755,823
34260,753,822
34265,745,822
34270,753,817
34275,752,817
34280,755,811
34285,750,810
34290,749,804
34295,753,804
34300,754,795
34305,756,797
34310,765,793
34315,765,786
34320,781,792
34325,781,784
34330,786,781
34335,805,775
34340,820,774
34345,829,767
34350,840,761
34355,845,764
34360,855,756
34365,864,750
34370,884,753
34375,890,746
34380,904,735
34385,925,738
34390,931,736
34395,938,730
34400,964,731
34405,975,721
34410,993,718
34415,1005,714
34420,1021,717
34425,1029,707
34430,1047,702
34435,1053,705
34440,1067,702
34445,1081,708
34450,1082,704
34455,1106,699
34460,1107,706
34465,1117,698
34470,1134,701
34475,1145,704
34480,1142,699
34485,1159,700
34490,1162,702
34495,1162,699
34500,1168,706
34505,1174,710
34510,1177,714
34515,1184,716
34520,1185,718
34525,1182,715
34530,1185,723
34535,1194,724
34540,1188,731
34545,1182,739
34550,1192,741
34555,1180,745
34560,1186,757
34565,1178,759
34570,1179,764
34575,1179,769
34580,1175,774
34585,1177,781
34590,1171,781
34595,1157,793
34600,1158,801
34605,1149,801
34610,1147,809
34615,1146,805
34620,1143,814
34625,1142,825
34630,1130,829
34635,1127,831
34640,1128,836
34645,1129,843
34650,1123,845
34655,1121,852
34660,1114,851
34665,1117,858
34670,1118,863
34675,1102,858
34680,1107,867
34685,1106,868
34690,1100,872
34695,1090,873
34700,1088,871
34705,1097,879
34710,1095,871
34715,1099,870
34720,1087,871
34725,1085,874
34730,1090,876
34735,1080,879
34740,1084,874
34745,1071,877
34750,1067,870
34755,1064,873
34760,1057,870
34765,1057,873
34770,1056,865
34775,1041,869
34780,1054,863
34785,1038,865
34790,1030,864
34795,1030,866
34800,1018,862
34805,1016,856
34810,993,854
34815,1001,857
34820,992,852
34825,984,857
34830,971,850
34835,967,848
34840,952,851
34845,950,848
34850,942,850
34855,920,844
34860,919,839
34865,908,845
34870,894,843
34875,883,842
34880,884,836
34885,863,838
34890,861,838
34895,846,830
34900,841,833
34905,827,836
34910,813,837
34915,807,836
34920,804,835
34925,797,834
34930,791,826
34935,770,821
34940,787,826
34945,760,819
34950,766,827
34955,760,825
34960,760,826
34965,757,823
34970,749,813
34975,742,816
34980,739,815
34985,747,812
34990,756,806
34995,758,803
35000,758,809
35005,753,802
35010,762,792
35015,771,790
35020,767,787
35025,785,783
35030,787,780
35035,800,778
35040,805,775
35045,819,769
35050,818,765
35055,833,763
35060,852,759
35065,864,763
35070,879,748
35075,893,747
35080,896,737
35085,917,744
35090,922,727
35095,941,731
35100,954,723
35105,963,719
35110,984,721
35115,997,718
35120,1011,717
35125,1023,712
35130,1030,705
35135,1055,704
35140,1059,699
35145,1072,696
35150,1090,704
35155,1090,699
35160,1107,695
35165,1119,700
35170,1121,699
35175,1141,699
35180,1145,697
35185,1149,701
35190,1159,703
35195,1165,705
35200,1165,704
35205,1165,705
35210,1180,712
35215,1179,712
35220,1182,717
35225,1187,713
35230,1187,717
35235,1187,728
35240,1186,732
35245,1183,736
35250,1191,739
35255,1189,742
35260,1199,748
35265,1190,758
35270,1177,757
35275,1177,766
35280,1178,768
35285,1163,778
35290,1164,779
35295,1165,789
35300,1168,791
35305,1157,805
35310,1156,806
35315,1147,810
35320,1150,812
35325,1141,820
35330,1140,817
35335,1145,826
35340,1139,840
35345,1130,835
35350,1122,843
35355,1126,852
35360,1122,848
35365,1119,850
35370,1105,854
35375,1107,857
35380,1104,857
35385,1110,865
35390,1106,865
35395,1101,867
35400,1099,870
35405,1088,874
35410,1102,876
35415,1083,877
35420,1081,871
35425,1081,876
35430,1083,870
35435,1077,874
35440,1075,871
35445,1070,875
35450,1069,873
35455,1066,869
35460,1069,877
35465,1050,872
35470,1052,873
35475,1058,870
35480,1059,867
35485,1046,865
35490,1052,861
35495,1029,864
35500,1016,859
35505,1012,859
35510,1010,858
35515,1004,855
35520,993,861
35525,991,852
35530,975,853
35535,979,850
35540,963,850
35545,952,842
35550,946,852
35555,934,849
35560,922,845
35565,915,838
35570,893,849
35575,892,843
35580,878,833
35585,871,841
35590,868,840
35595,865,844
35600,836,839
35605,830,838
35610,826,840
35615,810,837
35620,794,842
35625,800,835
35630,792,827
35635,769,830
35640,781,826
35645,781,830
35650,758,825
35655,764,826
35660,754,821
35665,748,821
35670,745,821
35675,757,816
35680,747,810
35685,748,814
35690,746,810
35695,752,808
35700,757,803
35705,763,803
35710,757,803
35715,764,798
35720,773,790
35725,774,784
35730,783,782
35735,792,773
35740,811,781
35745,808,774
35750,835,767
35755,830,763
35760,846,762
35765,859,754
35770,866,754
35775,881,746
35780,891,745
35785,913,741
35790,920,740
35795,941,731
35800,946,726
35805,958,728
35810,970,720
35815,993,720
35820,1005,713
35825,1023,713
35830,1031,713
35835,1046,708
35840,1054,705
35845,1071,710
35850,1077,704
35855,1102,702
35860,1102,699
35865,1110,694
35870,1119,704
35875,1128,698
35880,1136,696
35885,1146,699
35890,1155,701
35895,1158,704
35900,1161,705
35905,1175,709
35910,1175,711
35915,1173,716
35920,1177,714
35925,1184,722
35930,1183,721
35935,1191,724
35940,1187,725
35945,1186,732
35950,1186,744
35955,1183,740
35960,1183,749
35965,1184,755
35970,1185,757
35975,1185,760
35980,1174,772
35985,1165,774
35990,1171,778
35995,1166,788
36000,1164,794
36005,1159,795
36010,1157,802
36015,1149,805
36020,1152,814
36025,1144,815
36030,1143,820
36035,1142,831
36040,1144,830
36045,1134,833
36050,1121,840
36055,1133,846
36060,1125,851
36065,1116,848
36070,1111,853
36075,1102,858
36080,1113,863
36085,1110,863
36090,1093,861
36095,1106,869
36100,1094,872
36105,1089,868
36110,1095,869
36115,1094,872
36120,1088,869
36125,1088,873
36130,1072,878
36135,1093,880
36140,1084,880
36145,1076,875
36150,1072,876
36155,1064,869
36160,1069,874
36165,1054,873
36170,1061,869
36175,1057,878
36180,1055,865
36185,1042,873
36190,1042,866
36195,1033,868
36200,1023,864
36205,1020,867
36210,1016,864
36215,1017,862
36220,993,857
36225,982,849
36230,990,855
36235,978,857
36240,962,854
36245,960,850
36250,944,844
36255,944,849
36260,938,848
36265,918,841
36270,908,846
36275,897,840
36280,891,840
36285,873,841
36290,868,841
36295,868,843
36300,847,834
36305,834,838
36310,827,838
36315,827,838
36320,818,835
36325,799,826
36330,789,830
36335,784,833
36340,776,825
36345,775,830
36350,770,827
36355,759,825
36360,760,825
36365,758,821
36370,751,821
36375,748,813
36380,739,815
36385,755,815
36390,750,812
36395,750,802
36400,753,805
36405,752,795
36410,765,808
36415,760,796
36420,765,795
36425,772,793
36430,781,789
36435,793,783
36440,802,776
36445,804,771
36450,823,775
36455,831,772
36460,831,761
36465,853,757
36470,866,753
36475,876,753
36480,891,741
36485,898,741
36490,915,736
36495,928,741
36500,942,732
36505,945,726
36510,966,722
36515,983,718
36520,998,717
36525,1013,716
36530,1019,707
36535,1045,705
36540,1048,706
36545,1069,702
36550,1067,701
36555,1085,699
36560,1091,700
36565,1107,695
36570,1120,698
36575,1122,697
36580,1128,697
36585,1139,701
36590,1149,696
36595,1156,704
36600,1162,707
36605,1162,708
36610,1173,705
36615,1178,710
36620,1174,711
36625,1184,717
36630,1193,720
36635,1186,724
36640,1189,727
36645,1193,730
36650,1187,734
36655,1193,741
36660,1188,742
36665,1187,750
36670,1187,752
36675,1183,757
36680,1176,767
36685,1179,774
36690,1173,780
36695,1168,786
36700,1177,789
36705,1167,795
36710,1157,797
36715,1155,805
36720,1149,812
36725,1155,812
36730,1136,822
36735,1143,815
36740,1129,826
36745,1136,834
36750,1122,839
36755,1122,840
36760,1126,846
36765,1124,847
36770,1112,857
36775,1111,857
36780,1119,859
36785,1098,865
36790,1096,869
36795,1097,872
36800,1101,868
36805,1098,866
36810,1088,870
36815,1100,871
36820,1091,877
36825,1089,879
36830,1081,875
36835,1080,872
36840,1081,882
36845,1076,870
36850,1078,871
36855,1066,874
36860,1069,876
36865,1060,870
36870,1061,869
36875,1063,870
36880,1045,865
36885,1053,875
36890,1047,867
36895,1030,867
36900,1027,862
36905,1027,864
36910,1013,855
36915,1011,855
36920,1009,857
36925,990,856
36930,982,851
36935,979,853
36940,978,847
36945,963,849
36950,945,849
36955,943,852
36960,938,844
36965,923,847
36970,898,844
36975,902,843
36980,891,843
36985,886,841
36990,869,842
36995,868,839
37000,853,841
37005,846,839
37010,825,835
37015,819,831
37020,819,836
37025,806,839
37030,801,836
37035,789,833
37040,777,830
37045,776,828
37050,776,823
37055,768,822
37060,755,822
37065,760,822
37070,754,817
37075,740,818
37080,744,811
37085,739,810
37090,745,814
37095,752,808
37100,746,797
37105,762,803
37110,754,799
37115,763,793
37120,768,796
37125,772,790
37130,781,791
37135,783,781
37140,797,779
37145,799,778
37150,813,775
37155,824,766
37160,830,765
37165,835,756
37170,855,758
37175,865,751
37180,890,751
37185,884,742
37190,910,740
37195,928,736
37200,932,737
37205,948,725
37210,966,726
37215,987,717
37220,991,718
37225,1001,718
37230,1005,714
37235,1030,707
37240,1040,709
37245,1056,699
37250,1065,699
37255,1080,697
37260,1092,703
37265,1096,703
37270,1120,692
37275,1124,699
37280,1117,699
37285,1131,702
37290,1146,700
37295,1151,704
37300,1159,701
37305,1164,699
37310,1163,702
37315,1169,709
37320,1176,713
37325,1191,715
37330,1187,715
37335,1183,715
37340,1188,724
37345,1186,727
37350,1186,736
37355,1186,733
37360,1189,744
37365,1178,750
37370,1181,750
37375,1181,753
37380,1176,762
37385,1185,771
37390,1174,771
37395,1173,783
37400,1179,782
37405,1164,794
37410,1158,797
37415,1157,798
37420,1152,805
37425,1147,812
37430,1145,816
37435,1134,823
37440,1151,825
37445,1145,829
37450,1135,833
37455,1131,837
37460,1123,843
37465,1123,843
37470,1115,848
37475,1115,855
37480,1109,853
37485,1110,860
37490,1108,863
37495,1097,872
37500,1095,867
37505,1098,867
37510,1097,872
37515,1093,873
37520,1096,880
37525,1082,872
37530,1080,872
37535,1088,868
37540,1091,872
37545,1073,876
37550,1075,870
37555,1068,870
37560,1066,877
37565,1060,872
37570,1061,872
37575,1056,871
37580,1054,867
37585,1044,873
37590,1035,873
37595,1047,865
37600,1038,867
37605,1029,864
37610,1026,863
37615,1020,854
37620,1005,859
37625,1002,851
37630,995,857
37635,982,851
37640,969,854
37645,969,855
37650,955,844
37655,951,844
37660,941,844
37665,932,846
37670,925,849
37675,906,841
37680,899,845
37685,892,836
37690,865,837
37695,874,840
37700,861,845
37705,846,834
37710,834,834
37715,833,836
37720,828,836
37725,814,836
37730,804,833
37735,798,835
37740,785,827
37745,778,830
37750,774,822
37755,773,821
37760,756,825
37765,752,818
37770,759,819
37775,753,815
37780,742,820
37785,756,819
37790,756,811
37795,751,814
37800,751,801
37805,749,808
37810,743,800
37815,762,802
37820,764,794
37825,763,794
37830,770,787
37835,777,787
37840,785,781
37845,792,777
37850,802,777
37855,818,768
37860,825,769
37865,841,762
37870,853,757
37875,864,752
37880,869,753
37885,892,747
37890,905,743
37895,909,740
37900,926,734
37905,940,729
37910,947,726
37915,966,726
37920,978,721
37925,996,719
37930,1000,716
37935,1019,711
37940,1039,711
37945,1051,710
37950,1059,708
37955,1071,700
37960,1078,700
37965,1098,698
37970,1103,694
37975,1114,698
37980,1133,696
37985,1130,697
37990,1147,701
37995,1153,698
38000,1153,701
38005,1170,707
38010,1170,698
38015,1181,706
38020,1179,714
38025,1176,712
38030,1180,715
38035,1174,721
38040,1183,719
38045,1185,729
38050,1190,726
38055,1185,735
38060,1179,743
38065,1186,744
38070,1183,748
38075,1176,757
38080,1180,758
38085,1171,764
38090,1175,772
38095,1172,777
38100,1170,785
38105,1171,788
38110,1169,791
38115,1159,806
38120,1147,803
38125,1141,810
38130,1149,817
38135,1146,821
38140,1140,830
38145,1141,828
38150,1131,834
38155,1131,841
38160,1121,844
38165,1115,843
38170,1123,850
38175,1114,854
38180,1114,855
38185,1104,857
38190,1105,860
38195,1103,864
38200,1110,862
38205,1103,874
38210,1096,868
38215,1099,875
38220,1086,873
38225,1097,872
38230,1085,871
38235,1084,874
38240,1077,875
38245,1069,881
38250,1068,877
38255,1077,871
38260,1075,873
38265,1063,868
38270,1068,873
38275,1060,872
38280,1057,871
38285,1046,870
38290,1051,868
38295,1034,867
38300,1040,867
38305,1037,862
38310,1022,862
38315,1015,859
38320,1008,860
38325,1007,857
38330,1000,857
38335,994,853
38340,979,850
38345,964,854
38350,968,849
38355,956,847
38360,942,851
38365,939,846
38370,937,848
38375,917,844
38380,897,842
38385,887,840
38390,887,837
38395,875,835
38400,863,835
38405,859,837
38410,840,834
38415,821,834
38420,829,832
38425,807,836
38430,794,832
38435,799,832
38440,793,830
38445,780,825
38450,770,832
38455,768,827
38460,768,824
38465,762,827
38470,756,828
38475,761,814
38480,757,817
38485,750,816
38490,748,813
38495,740,813
38500,749,808
38505,754,803
38510,749,807
38515,756,794
38520,751,794
38525,759,795
38530,768,788
38535,774,785
38540,782,787
38545,799,779
38550,798,779
38555,809,773
38560,821,766
38565,828,761
38570,836,758
38575,853,752
38580,872,751
38585,875,752
38590,893,743
38595,902,746
38600,920,740
38605,930,734
38610,944,727
38615,962,721
38620,973,723
38625,981,722
38630,998,718
38635,1010,712
38640,1027,709
38645,1041,709
38650,1051,705
38655,1061,696
38660,1079,701
38665,1088,701
38670,1103,700
38675,1109,696
38680,1117,696
38685,1133,698
38690,1149,698
38695,1149,697
38700,1148,703
38705,1157,707
38710,1159,705
38715,1172,707
38720,1176,709
38725,1178,709
38730,1179,718
38735,1175,718
38740,1191,722
38745,1185,719
38750,1192,728
38755,1188,735
38760,1191,742
38765,1182,739
38770,1183,747
38775,1183,752
38780,1173,757
38785,1178,769
38790,1171,768
38795,1183,770
38800,1166,778
38805,1170,792
38810,1172,792
38815,1154,794
38820,1161,798
38825,1150,807
38830,1151,810
38835,1146,816
38840,1133,819
38845,1140,825
38850,1139,827
38855,1127,834
38860,1131,840
38865,1124,844
38870,1120,848
38875,1116,852
38880,1113,856
38885,1104,860
38890,1118,858
38895,1102,869
38900,1098,864
38905,1098,868
38910,1096,864
38915,1098,867
38920,1090,874
38925,1101,874
38930,1079,871
38935,1080,876
38940,1087,879
38945,1081,876
38950,1080,879
38955,1072,874
38960,1074,876
38965,1068,868
38970,1064,873
38975,1059,873
38980,1067,869
38985,1051,867
38990,1049,867
38995,1052,865
39000,1028,866
39005,1027,862
39010,1023,868
39015,1020,861
39020,1013,855
39025,1011,858
39030,1004,855
39035,995,859
39040,981,850
39045,969,852
39050,969,850
39055,965,849
39060,951,845
39065,937,846
39070,929,849
39075,917,851
39080,904,841
39085,908,843
39090,889,843
39095,872,841
39100,858,840
39105,857,837
39110,857,833
39115,842,833
39120,835,836
39125,812,838
39130,806,833
39135,799,828
39140,789,832
39145,785,827
39150,774,831
39155,773,827
39160,779,833
39165,765,824
39170,761,827
39175,760,824
39180,747,821
39185,746,817
39190,757,820
39195,749,816
39200,747,805
39205,752,810
39210,755,808
39215,749,803
39220,762,798
39225,761,794
39230,768,794
39235,776,789
39240,776,784
39245,783,782
39250,797,781
39255,806,773
39260,820,767
39265,829,771
39270,840,764
39275,850,757
39280,858,753
39285,867,755
39290,880,740
39295,900,746
39300,914,740
39305,931,740
39310,938,734
39315,956,730
39320,959,726
39325,980,723
39330,1003,710
39335,1018,719
39340,1018,715
39345,1027,705
39350,1048,711
39355,1050,708
39360,1077,705
39365,1087,700
39370,1092,702
39375,1100,704
39380,1111,698
39385,1128,698
39390,1136,702
39395,1140,696
39400,1149,699
39405,1150,701
39410,1168,699
39415,1172,707
39420,1165,710
39425,1179,710
39430,1177,712
39435,1177,714
39440,1182,718
39445,1182,722
39450,1181,725
39455,1187,732
39460,1187,732
39465,1193,739
39470,1194,744
39475,1196,751
39480,1188,754
39485,1185,764
39490,1178,762
39495,1184,775
39500,1175,772
39505,1165,786
39510,1167,784
39515,1161,797
39520,1159,802
39525,1156,801
39530,1153,804
39535,1152,817
39540,1151,818
39545,1145,828
39550,1136,831
39555,1137,836
39560,1121,845
39565,1133,843
39570,1124,844
39575,1117,848
39580,1113,851
39585,1115,857
39590,1108,858
39595,1103,858
39600,1104,867
39605,1110,869
39610,1100,866
39615,1102,868
39620,1090,873
39625,1097,876
39630,1095,875
39635,1087,875
39640,1084,875
39645,1079,882
39650,1093,877
39655,1069,876
39660,1078,874
39665,1065,875
39670,1064,875
39675,1061,872
39680,1058,869
39685,1058,869
39690,1053,867
39695,1053,867
39700,1047,864
39705,1031,868
39710,1030,863
39715,1029,863
39720,1020,865
39725,998,859
39730,1003,852
39735,994,859
39740,989,853
39745,990,850
39750,969,852
39755,957,848
39760,960,854
39765,942,844
39770,932,841
39775,923,845
39780,914,850
39785,902,843
39790,895,835
39795,889,836
39800,865,841
39805,861,839
39810,859,840
39815,843,837
39820,837,833
39825,828,834
39830,805,835
39835,811,831
39840,803,834
39845,789,829
39850,786,828
39855,781,834
39860,764,825
39865,765,821
39870,768,830
39875,752,824
39880,749,821
39885,748,812
39890,748,819
39895,749,810
39900,748,810
39905,751,810
39910,747,808
39915,761,803
39920,758,808
39925,759,795
39930,763,792
39935,770,789
39940,780,789
39945,783,786
39950,789,776
39955,795,780
39960,815,773
39965,823,774
39970,839,762
39975,847,766
39980,852,758
39985,864,749
39990,866,754
39995,897,744
40000,899,746
40005,914,737
40010,928,732
40015,946,728
40020,956,726
40025,974,724
40030,987,721
40035,994,716
40040,1005,717
40045,1026,709
40050,1045,705
40055,1050,709
40060,1069,703
40065,1077,702
40070,1084,700
40075,1099,701
40080,1103,698
40085,1120,702
40090,1123,703
40095,1145,698
40100,1147,701
40105,1142,701
40110,1154,701
40115,1169,703
40120,1176,705
40125,1179,710
40130,1172,712
40135,1183,714
40140,1187,715
40145,1188,727
40150,1188,726
40155,1187,724
40160,1195,733
40165,1189,737
40170,1180,742
40175,1183,747
40180,1185,750
40185,1177,751
40190,1170,752
40195,1175,768
40200,1181,771
40205,1173,781
40210,1168,782
40215,1162,786
40220,1164,794
40225,1164,800
40230,1151,801
40235,1153,813
40240,1151,817
40245,1138,822
40250,1141,826
40255,1133,830
40260,1125,840
40265,1126,840
40270,1118,844
40275,1106,853
40280,1112,853
40285,1105,851
40290,1112,859
40295,1109,862
40300,1100,870
40305,1115,870
40310,1102,869
40315,1098,873
40320,1093,870
40325,1091,872
40330,1090,869
40335,1093,874
40340,1080,870
40345,1073,877
40350,1081,869
40355,1083,874
40360,1074,872
40365,1085,875
40370,1079,879
40375,1061,872
40380,1062,870
40385,1063,871
40390,1048,866
40395,1045,867
40400,1042,865
40405,1041,870
40410,1033,862
40415,1027,860
40420,1016,862
40425,1013,861
40430,1016,855
40435,998,860
40440,993,855
40445,984,853
40450,973,853
40455,967,849
40460,960,848
40465,947,850
40470,939,844
40475,932,841
40480,917,841
40485,912,848
40490,899,849
40495,886,844
40500,884,838
40505,874,837
40510,856,836
40515,854,835
40520,836,836
40525,833,838
40530,828,834
40535,807,835
40540,810,836
40545,801,835
40550,790,827
40555,772,829
40560,775,824
40565,764,829
40570,766,827
40575,759,828
40580,753,821
40585,759,822
40590,751,816
40595,752,814
40600,755,817
40605,742,809
40610,748,809
40615,746,809
40620,756,803
40625,759,801
40630,759,795
40635,762,791
40640,775,789
40645,783,790
40650,792,781
40655,806,778
40660,805,772
40665,807,773
40670,822,771
40675,836,765
40680,845,762
40685,855,758
40690,873,756
40695,878,743
40700,902,741
40705,909,736
40710,929,735
40715,934,735
40720,945,731
40725,964,722
40730,977,726
40735,992,718
40740,1011,716
40745,1018,713
40750,1033,708
40755,1043,711
40760,1053,707
40765,1070,700
40770,1085,705
40775,1096,699
40780,1109,708
40785,1111,698
40790,1124,695
40795,1127,704
40800,1150,695
40805,1154,703
40810,1158,701
40815,1160,701
40820,1166,703
40825,1183,711
40830,1170,709
40835,1182,710
40840,1187,715
40845,1182,714
40850,1194,719
40855,1197,723
40860,1187,727
40865,1191,738
40870,1182,737
40875,1191,742
40880,1188,752
40885,1183,760
40890,1191,759
40895,1165,764
40900,1182,767
40905,1168,778
40910,1169,786
40915,1166,789
40920,1163,796
40925,1151,796
40930,1152,801
40935,1157,807
40940,1146,818
40945,1139,820
40950,1140,819
40955,1131,832
40960,1133,830
40965,1132,836
40970,1128,837
40975,1118,850
40980,1118,853
40985,1120,850
40990,1120,860
40995,1112,857
41000,1104,866
41005,1110,864
41010,1110,864
41015,1088,870
41020,1110,873
41025,1092,867
41030,1093,872
41035,1091,874
41040,1083,876
41045,1088,874
41050,1078,873
41055,1072,875
41060,1079,879
41065,1072,878
41070,1077,876
41075,1067,870
41080,1061,878
41085,1059,867
41090,1061,871
41095,1055,866
41100,1044,867
41105,1042,867
41110,1038,870
41115,1028,865
41120,1021,859
41125,1016,866
41130,1013,853
41135,1002,859
41140,1001,855
41145,994,853
41150,980,859
41155,965,855
41160,952,848
41165,956,845
41170,944,846
41175,940,843
41180,924,841
41185,916,849
41190,920,844
41195,894,840
41200,883,840
41205,872,842
41210,855,835
41215,863,831
41220,842,834
41225,839,832
41230,820,832
41235,812,833
41240,807,828
41245,795,832
41250,794,835
41255,798,832
41260,774,831
41265,767,830
41270,766,824
41275,761,823
41280,754,820
41285,758,818
41290,753,820
41295,743,819
41300,751,817
41305,748,809
41310,745,814
41315,749,806
41320,747,809
41325,757,803
41330,754,797
41335,767,796
41340,765,790
41345,775,786
41350,799,781
41355,793,775
41360,798,780
41365,805,773
41370,820,771
41375,826,770
41380,846,757
41385,856,761
41390,867,759
41395,872,748
41400,900,743
41405,896,733
41410,920,741
41415,928,730
41420,948,731
41425,962,730
41430,979,722
41435,985,722
41440,999,710
41445,1006,714
41450,1032,707
41455,1037,704
41460,1048,704
41465,1071,703
41470,1067,703
41475,1076,696
41480,1094,699
41485,1103,699
41490,1118,696
41495,1125,691
41500,1138,694
41505,1141,694
41510,1149,699
41515,1158,701
41520,1170,703
41525,1172,710
41530,1169,708
41535,1181,710
41540,1182,709
41545,1185,723
41550,1191,720
41555,1176,724
41560,1184,725
41565,1188,734
41570,1201,741
41575,1180,744
41580,1188,754
41585,1187,751
41590,1188,755
41595,1177,768
41600,1180,764
41605,1171,770
41610,1172,779
41615,1167,783
41620,1170,788
41625,1173,800
41630,1158,803
41635,1155,807
41640,1153,815
41645,1156,814
41650,1153,817
41655,1142,827
41660,1136,833
41665,1132,835
41670,1125,841
41675,1121,840
41680,1128,849
41685,1119,850
41690,1116,852
41695,1121,861
41700,1116,855
41705,1108,866
41710,1105,863
41715,1105,867
41720,1106,873
41725,1092,872
41730,1092,872
41735,1096,874
41740,1091,879
41745,1091,871
41750,1085,876
41755,1082,874
41760,1074,874
41765,1083,875
41770,1076,871
41775,1070,876
41780,1062,869
41785,1065,873
41790,1056,870
41795,1062,866
41800,1052,864
41805,1044,870
41810,1043,866
41815,1035,869
41820,1027,859
41825,1015,859
41830,1021,860
41835,1010,854
41840,1002,856
41845,992,852
41850,990,852
41855,981,851
41860,967,854
41865,958,854
41870,944,847
41875,943,846
41880,933,846
41885,928,846
41890,913,848
41895,890,842
41900,896,842
41905,887,839
41910,855,835
