timestamp_ms,ir_finger,ir_toe
0,1053,788
5,1057,787
10,1069,783
15,1085,782
20,1095,776
25,1105,780
30,1097,772
35,1114,771
40,1134,763
45,1143,767
50,1155,764
55,1155,758
60,1155,761
65,1164,759
70,1181,760
75,1187,751
80,1176,753
85,1186,758
90,1189,752
95,1187,754
100,1184,746
105,1194,746
110,1189,748
115,1198,748
120,1184,742
125,1188,747
130,1183,745
135,1183,746
140,1176,748
145,1180,745
150,1162,742
155,1174,747
160,1156,752
165,1165,753
170,1160,753
175,1156,757
180,1155,760
185,1151,757
190,1140,766
195,1132,765
200,1149,767
205,1134,769
210,1132,773
215,1128,775
220,1129,774
225,1119,782
230,1116,780
235,1113,790
240,1104,790
245,1110,794
250,1103,795
255,1101,801
260,1100,798
265,1102,803
270,1097,811
275,1092,804
280,1090,811
285,1088,816
290,1081,815
295,1085,817
300,1082,822
305,1072,821
310,1077,824
315,1070,834
320,1069,830
325,1063,831
330,1068,830
335,1056,829
340,1054,835
345,1050,838
350,1037,836
355,1025,834
360,1032,838
365,1024,840
370,1015,841
375,997,841
380,999,838
385,991,838
390,988,836
395,972,839
400,962,836
405,953,838
410,942,838
415,930,836
420,924,840
425,926,839
430,896,834
435,892,833
440,888,832
445,866,833
450,867,834
455,849,831
460,847,834
465,838,826
470,823,829
475,807,825
480,799,831
485,801,828
490,798,827
495,785,826
500,773,825
505,767,823
510,764,823
515,760,819
520,763,819
525,756,818
530,753,822
535,743,813
540,742,822
545,751,821
550,753,818
555,752,817
560,754,819
565,752,817
570,767,818
575,766,817
580,772,810
585,781,813
590,791,811
595,793,813
600,813,817
605,827,810
610,831,812
615,839,810
620,846,813
625,866,803
630,881,809
635,885,803
640,903,802
645,915,800
650,933,805
655,949,797
660,955,800
665,978,796
670,985,793
675,1004,788
680,1011,789
685,1036,784
690,1042,787
695,1049,783
700,1068,776
705,1073,777
710,1085,771
715,1097,772
720,1115,772
725,1112,769
730,1132,763
735,1139,768
740,1141,763
745,1154,763
750,1159,762
755,1167,753
760,1178,757
765,1172,751
770,1183,754
775,1176,754
780,1185,752
785,1184,751
790,1194,748
795,1187,743
800,1196,749
805,1186,745
810,1185,750
815,1176,749
820,1184,751
825,1180,750
830,1177,745
835,1180,753
840,1177,751
845,1164,748
850,1173,752
855,1158,756
860,1153,754
865,1156,758
870,1151,758
875,1141,766
880,1153,760
885,1141,765
890,1142,765
895,1134,771
900,1128,772
905,1123,773
910,1113,774
915,1125,784
920,1122,780
925,1114,782
930,1104,789
935,1111,796
940,1110,793
945,1108,798
950,1095,799
955,1090,800
960,1100,807
965,1095,806
970,1087,811
975,1085,814
980,1082,822
985,1090,821
990,1087,825
995,1073,826
1000,1079,824
1004,1079,827
1010,1070,828
1014,1063,830
1020,1057,831
1025,1056,837
1030,1051,834
1035,1059,835
1040,1040,835
1045,1025,836
1050,1031,842
1055,1025,836
1060,1017,834
1065,1008,837
1070,998,837
1075,995,842
1080,975,838
1085,967,840
1090,966,835
1095,956,840
1100,947,830
1105,932,833
1110,929,836
1115,915,835
1120,903,831
1125,896,842
1130,886,830
1135,864,832
1140,861,837
1145,852,832
1150,841,829
1155,836,833
1160,822,823
1165,820,828
1170,813,826
1175,801,828
1180,790,827
1185,781,823
1190,777,823
1195,777,822
1200,770,825
1205,760,824
1210,755,821
1215,753,818
1220,755,824
1225,751,819
1230,754,819
1235,748,817
1240,753,814
1245,751,816
1250,756,814
1255,748,820
1260,764,814
1265,772,815
1270,761,813
1275,779,817
1280,798,811
1285,795,813
1290,806,811
1295,823,816
1300,825,813
1305,837,807
1310,852,807
1315,857,807
1320,881,807
1325,889,801
1330,906,802
1335,913,796
1340,937,801
1345,948,805
1350,952,798
1355,971,797
1360,988,792
1365,994,791
1370,1002,790
1375,1026,784
1380,1037,786
1385,1044,782
1390,1060,783
1395,1078,785
1400,1082,783
1405,1099,776
1410,1114,774
1415,1112,773
1420,1125,767
1425,1131,768
1430,1149,762
1435,1146,764
1440,1162,764
1445,1177,762
1450,1169,757
1455,1171,750
1460,1180,755
1465,1175,754
1470,1173,756
1475,1188,745
1480,1183,751
1485,1179,750
1490,1188,752
1495,1190,746
1500,1182,743
1505,1186,743
1510,1187,746
1515,1178,751
1520,1174,747
1525,1178,743
1530,1179,750
1535,1174,746
1540,1173,755
1545,1166,751
1550,1168,750
1555,1154,754
1560,1158,757
1565,1146,761
1570,1140,760
1575,1142,762
1580,1129,767
1585,1126,771
1590,1135,771
1595,1125,776
1600,1121,774
1605,1119,778
1610,1115,783
1615,1112,788
1620,1112,790
1625,1104,795
1630,1109,792
1635,1101,794
1640,1099,802
1645,1094,803
1650,1107,802
1655,1091,808
1660,1091,810
1665,1085,809
1670,1085,816
1675,1088,813
1680,1075,823
1685,1079,822
1690,1075,828
1695,1059,828
1700,1073,828
1705,1066,830
1710,1045,831
1715,1054,829
1720,1046,831
1725,1035,838
1730,1038,836
1735,1031,831
1740,1023,837
1745,1020,834
1750,1015,836
1755,1002,839
1760,1006,837
1765,987,833
1770,983,833
1775,979,843
1780,970,835
1785,959,837
1790,946,837
1795,940,835
1800,927,837
1805,904,836
1810,915,837
1815,886,834
1820,891,828
1825,870,834
1830,861,831
1835,853,835
1840,845,831
1845,831,825
1850,826,830
1855,810,821
1860,806,825
1865,802,827
1870,792,825
1875,796,827
1880,786,826
1885,775,824
1890,773,827
1895,760,823
1900,750,820
1905,749,830
1910,744,822
1915,746,820
1920,745,821
1925,747,820
1930,755,822
1935,738,818
1940,760,816
1945,758,814
1950,761,816
1955,769,816
1960,765,809
1965,782,807
1970,786,819
1975,799,814
1980,818,813
1985,816,812
1990,834,811
1995,844,814
2000,853,807
2005,858,808
2009,866,799
2015,889,802
2020,901,803
2025,914,802
2029,935,803
2035,946,803
2040,952,797
2045,961,797
2050,991,793
2055,995,790
2060,1010,791
2065,1033,783
2070,1042,782
2075,1050,783
2080,1068,780
2085,1070,774
2090,1076,779
2095,1095,774
2100,1103,770
2105,1120,774
2110,1137,770
2115,1142,759
2120,1136,766
2125,1155,760
2130,1156,754
2135,1164,767
2140,1176,762
2145,1173,750
2150,1180,759
2155,1176,756
2160,1187,754
2165,1188,752
2170,1182,743
2175,1196,749
2180,1191,747
2185,1186,748
2190,1186,753
2195,1182,745
2200,1192,746
2205,1184,738
2210,1180,752
2215,1176,747
2220,1173,751
2225,1172,745
2230,1173,750
2235,1161,748
2240,1161,760
2245,1155,755
2250,1149,760
2255,1150,758
2260,1148,762
2265,1149,760
2270,1141,766
2275,1138,771
2280,1135,775
2285,1122,769
2290,1132,779
2295,1124,778
2300,1118,786
2305,1114,788
2310,1106,792
2315,1099,789
2320,1094,796
2325,1102,797
2330,1102,799
2335,1098,800
2340,1090,807
2345,1098,809
2350,1077,811
2355,1088,807
2360,1083,814
2365,1078,820
2370,1084,823
2375,1079,825
2380,1061,825
2385,1070,826
2390,1066,826
2395,1062,823
2400,1060,829
2405,1059,834
2410,1048,829
2415,1048,831
2420,1042,830
2425,1035,837
2430,1016,839
2435,1018,835
2440,1012,842
2445,1007,838
2450,996,841
2455,990,842
2460,991,839
2465,971,840
2470,968,839
2475,959,836
2480,948,831
2485,939,837
2490,938,835
2495,921,837
2500,907,838
2505,902,829
2510,892,834
2515,876,836
2520,863,826
2525,857,828
2530,849,828
2535,837,833
2540,820,829
2545,815,830
2550,802,825
2555,794,829
2560,792,827
2565,774,826
2570,798,820
2575,773,823
2580,765,823
2585,761,827
2590,755,822
2595,752,821
2600,739,824
2605,748,818
2610,740,822
2615,757,821
2620,751,823
2625,749,817
2630,751,815
2635,760,821
2640,771,818
2645,774,820
2650,769,815
2655,779,819
2660,789,811
2665,801,807
2670,809,812
2675,815,815
2680,822,811
2685,848,802
2690,845,808
2695,856,809
2700,872,805
2705,880,807
2710,895,803
2715,911,801
2720,930,797
2725,933,797
2730,954,799
2735,972,797
2740,985,794
2745,994,792
2750,1005,790
2755,1020,790
2760,1040,786
2765,1048,790
2770,1059,783
2775,1077,779
2780,1081,779
2785,1099,772
2790,1105,771
2795,1120,769
2800,1123,764
2805,1142,762
2810,1143,768
2815,1147,759
2820,1148,759
2825,1167,758
2830,1172,757
2835,1173,755
2840,1180,751
2845,1194,750
2850,1178,753
2855,1189,751
2860,1191,751
2865,1190,751
2870,1187,748
2875,1193,743
2880,1187,750
2885,1188,745
2890,1175,750
2895,1183,743
2900,1178,747
2905,1179,748
2910,1169,751
2915,1176,746
2920,1171,752
2925,1158,752
2930,1160,755
2935,1155,751
2940,1160,757
2945,1150,758
2950,1148,761
2955,1147,763
2960,1135,768
2965,1131,769
2970,1137,769
2975,1134,772
2980,1123,777
2985,1113,777
2990,1111,781
2995,1107,785
3000,1108,785
3005,1110,786
3010,1107,797
3015,1109,796
3020,1104,805
3025,1094,807
3030,1097,805
3035,1096,807
3040,1088,809
3045,1084,814
3050,1085,814
3055,1081,820
3060,1077,821
3065,1081,825
3070,1071,829
3075,1067,829
3080,1072,829
3085,1058,831
3090,1062,832
3095,1051,835
3100,1055,835
3105,1045,837
3110,1042,838
3115,1031,835
3120,1028,837
3125,1031,833
3130,1015,844
3135,1003,837
3140,1003,835
3145,1001,841
3150,984,838
3155,989,846
3160,967,839
3165,955,842
3170,945,838
3175,946,842
3180,931,836
3185,915,837
3190,914,833
3195,894,832
3200,897,833
3205,869,838
3210,861,831
3215,869,836
3220,846,832
3225,838,831
3230,830,832
3235,814,830
3240,807,825
3245,800,829
3250,794,826
3255,783,827
3260,781,824
3265,767,822
3270,763,820
3275,766,822
3280,754,820
3285,758,820
3290,757,824
3295,745,813
3300,749,818
3305,747,825
3310,748,818
3315,749,810
3320,748,818
3325,749,818
3330,752,820
3335,762,809
3340,762,812
3345,773,814
3350,782,814
3355,800,814
3360,804,810
3365,812,810
3370,817,814
3375,834,812
3380,849,808
3385,851,803
3390,874,808
3395,882,802
3400,896,806
3405,904,808
3410,915,803
3415,935,799
3420,947,798
3425,960,796
3430,984,794
3435,1000,788
3440,1013,787
3445,1019,784
3450,1035,793
3455,1043,782
3460,1055,785
3465,1077,777
3470,1074,777
3475,1088,773
3480,1098,773
3485,1118,769
3490,1125,767
3495,1127,768
3500,1147,768
3505,1146,764
3510,1152,763
3515,1161,754
3520,1162,756
3525,1169,762
3530,1178,763
3535,1181,753
3540,1185,753
3545,1182,750
3550,1187,753
3555,1183,747
3560,1187,748
3565,1183,751
3570,1191,746
3575,1181,748
3580,1192,750
3585,1180,745
3590,1178,749
3595,1170,742
3600,1172,751
3605,1167,757
3610,1172,747
3615,1163,750
3620,1163,751
3625,1164,751
3630,1152,755
3635,1149,764
3640,1154,761
3645,1136,763
3650,1138,764
3655,1137,767
3660,1129,765
3665,1126,775
3670,1129,780
3675,1128,782
3680,1123,782
3685,1116,783
3690,1117,781
3695,1113,793
3700,1106,791
3705,1111,794
3710,1104,803
3715,1095,800
3720,1092,800
3725,1094,807
3730,1090,807
3735,1086,813
3740,1087,813
3745,1074,812
3750,1083,819
3755,1069,819
3760,1070,824
3765,1070,821
3770,1067,824
3775,1070,834
3780,1053,835
3785,1050,833
3790,1050,834
3795,1043,833
3800,1044,839
3805,1044,837
3810,1028,836
3815,1030,834
3820,1022,839
3825,1009,838
3830,1006,837
3835,993,836
3840,983,834
3845,978,839
3850,960,834
3855,956,837
3860,944,836
3865,939,836
3870,931,837
3875,916,840
3880,911,839
3885,901,832
3890,880,829
3895,872,835
3900,864,831
3905,853,835
3910,842,828
3915,847,833
3920,825,827
3925,817,829
3930,814,828
3935,800,820
3940,794,830
3945,792,828
3950,783,827
3955,771,827
3960,771,826
3965,764,819
3970,757,821
3975,755,819
3980,754,819
3985,752,816
3990,752,821
3995,748,818
4000,750,825
4005,750,817
4010,745,818
4014,760,819
4019,762,816
4025,756,814
4030,766,812
4035,771,822
4040,788,817
4045,798,816
4050,802,817
4054,810,814
4059,826,813
4065,832,810
4070,843,807
4075,857,808
4080,869,802
4085,888,806
4090,890,800
4094,908,804
4100,924,806
4105,937,797
4110,956,801
4115,956,797
4120,974,794
4125,983,792
4130,1001,794
4135,1019,786
4140,1028,786
4145,1044,786
4150,1055,782
4155,1078,775
4160,1082,774
4165,1086,772
4170,1106,771
4175,1119,773
4180,1120,770
4185,1132,766
4190,1151,769
4195,1151,763
4200,1154,760
4205,1171,760
4210,1169,758
4215,1170,757
4220,1169,761
4225,1179,751
4230,1180,753
4235,1182,750
4240,1188,751
4245,1181,745
4250,1190,747
4255,1185,750
4260,1191,747
4265,1196,746
4270,1179,746
4275,1176,750
4280,1180,750
4285,1181,746
4290,1178,749
4295,1171,748
4300,1167,752
4305,1169,749
4310,1150,751
4315,1161,759
4320,1158,758
4325,1146,762
4330,1144,762
4335,1139,759
4340,1141,768
4345,1128,770
4350,1132,774
4355,1119,771
4360,1129,777
4365,1124,781
4370,1118,780
4375,1115,782
4380,1111,787
4385,1110,785
4390,1104,794
4395,1098,791
4400,1096,802
4405,1103,802
4410,1098,804
4415,1092,814
4420,1093,807
4425,1087,812
4430,1089,816
4435,1083,822
4440,1078,825
4445,1078,826
4450,1077,829
4455,1071,826
4460,1066,828
4465,1068,828
4470,1065,835
4475,1060,833
4480,1060,829
4485,1044,835
4490,1041,838
4495,1043,837
4500,1035,835
4505,1025,838
4510,1018,842
4515,1012,840
4520,1008,839
4525,1004,836
4530,992,835
4535,978,833
4540,965,842
4545,952,846
4550,949,836
4555,951,836
4560,925,841
4565,930,841
4570,915,838
4575,899,835
4580,888,832
4585,884,835
4590,866,836
4595,862,832
4600,846,823
4605,845,831
4610,822,826
4615,815,833
4620,812,822
4625,807,823
4630,799,828
4635,775,827
4640,784,827
4645,773,825
4650,771,825
4655,762,827
4660,753,822
4665,757,821
4670,749,814
4675,747,820
4680,743,821
4685,748,822
4690,752,821
4695,754,818
4700,746,813
4705,760,816
4710,755,815
4715,770,818
4720,762,816
4725,768,810
4730,782,816
4735,795,815
4740,814,809
4745,816,810
4750,822,815
4755,822,811
4760,847,811
4765,851,806
4770,864,804
4775,882,804
4780,892,800
4785,898,804
4790,928,807
4795,924,802
4800,950,797
4805,964,794
4810,972,796
4815,992,796
4820,1004,793
4825,1014,788
4830,1032,782
4835,1044,785
4840,1059,786
4845,1070,782
4850,1085,781
4855,1096,777
4860,1108,774
4865,1123,774
4870,1123,769
4875,1125,767
4880,1136,767
4885,1154,765
4890,1158,763
4895,1162,758
4900,1168,767
4905,1174,757
4910,1165,748
4915,1186,753
4920,1179,755
4925,1182,749
4930,1187,752
4935,1190,746
4940,1183,746
4945,1194,740
4950,1190,750
4955,1187,744
4960,1182,744
4965,1178,749
4970,1182,747
4975,1176,749
4980,1168,750
4985,1172,752
4990,1166,744
4995,1168,752
5000,1162,754
5005,1156,749
5010,1152,758
5015,1154,756
5020,1151,763
5025,1143,763
5030,1144,766
5035,1133,766
5040,1131,773
5045,1126,771
5050,1126,773
5055,1125,776
5060,1121,782
5065,1116,783
5070,1114,791
5075,1106,789
5080,1114,792
5085,1107,798
5090,1110,799
5095,1106,803
5100,1097,804
5105,1095,806
5110,1097,807
5115,1090,811
5120,1083,814
5125,1089,814
5130,1082,816
5135,1083,823
5140,1080,824
5145,1072,822
5150,1068,827
5155,1060,831
5160,1058,829
5165,1064,832
5170,1058,830
5175,1050,837
5180,1049,832
5185,1036,833
5190,1033,841
5195,1022,837
5200,1030,840
5205,1008,837
5210,999,842
5215,992,836
5220,995,837
5225,977,839
5230,968,836
5235,960,840
5240,953,834
5245,948,837
5250,933,839
5255,918,834
5260,912,835
5265,902,834
5270,888,840
5275,873,838
5280,876,836
5285,868,833
5290,848,833
5295,840,828
5300,826,834
5305,823,829
5310,810,830
5315,800,827
5320,798,824
5325,787,824
5330,782,830
5335,767,824
5340,767,817
5345,748,827
5350,763,818
5355,758,823
5360,756,827
5365,743,821
5370,754,817
5375,749,818
5380,750,820
5385,746,819
5390,759,813
5395,752,816
5400,762,819
5405,763,818
5410,776,813
5415,784,818
5420,784,810
5425,794,808
5430,794,812
5435,814,812
5440,816,810
5445,825,812
5450,834,813
5455,854,806
5460,873,809
5465,874,805
5470,891,803
5475,901,802
5480,920,799
5485,933,799
5490,949,797
5495,963,801
5500,970,800
5505,991,790
5510,994,792
5515,1024,793
5520,1024,788
5525,1040,784
5530,1058,783
5535,1067,785
5540,1071,780
5545,1096,773
5550,1108,773
5555,1116,773
5560,1123,770
5565,1137,773
5570,1142,768
5575,1142,769
5580,1147,762
5585,1161,758
5590,1162,761
5595,1176,757
5600,1177,753
5605,1184,753
5610,1182,749
5615,1184,749
5620,1191,753
5625,1181,749
5630,1195,752
5635,1181,747
5640,1189,747
5645,1189,747
5650,1182,745
5655,1184,750
5660,1174,748
5665,1180,750
5670,1177,745
5675,1183,747
5680,1170,749
5685,1169,756
5690,1171,756
5695,1159,754
5700,1154,754
5705,1153,756
5710,1138,756
5715,1151,753
5720,1130,768
5725,1138,774
5730,1131,768
5735,1132,772
5740,1125,773
5745,1127,776
5750,1115,779
5755,1119,782
5760,1107,787
5765,1112,789
5770,1097,793
5775,1101,795
5780,1096,798
5785,1097,800
5790,1094,809
5795,1090,807
5800,1091,808
5805,1081,814
5810,1092,816
5815,1080,817
5820,1081,816
5825,1075,815
5830,1083,824
5835,1075,822
5840,1075,823
5845,1062,831
5850,1060,831
5855,1059,828
5860,1062,834
5865,1044,837
5870,1043,835
5875,1039,836
5880,1026,840
5885,1023,840
5890,1023,835
5895,1016,836
5900,1007,841
5905,1003,842
5910,986,838
5915,970,841
5920,976,843
5925,964,840
5930,952,834
5935,941,840
5940,933,838
5945,923,839
5950,919,839
5955,903,838
5960,890,838
5965,884,833
5970,874,833
5975,861,834
5980,851,835
5985,837,833
5990,832,825
5995,823,830
6000,812,826
6005,810,825
6010,799,830
6015,786,823
6020,784,821
6025,776,828
6030,759,824
6035,765,823
6040,765,824
6045,752,822
6050,750,821
6055,748,821
6060,740,816
6065,743,818
6070,753,822
6075,752,816
6080,748,816
6085,757,818
6090,761,820
6095,767,818
6100,764,815
6105,779,814
6110,788,818
6115,783,818
6120,790,814
6125,812,808
6130,812,820
6135,828,811
6140,836,811
6145,855,808
6150,874,808
6155,872,805
6160,890,799
6165,901,803
6170,918,808
6175,923,796
6180,939,796
6185,960,794
6190,977,797
6195,995,799
6200,1001,793
6205,1017,792
6210,1029,782
6215,1040,782
6220,1055,785
6225,1069,781
6230,1080,781
6235,1097,776
6240,1097,773
6245,1110,773
6250,1119,772
6255,1138,767
6260,1141,770
6265,1152,764
6270,1154,763
6275,1162,762
6280,1174,757
6285,1172,754
6290,1175,755
6295,1177,759
6300,1182,751
6305,1195,751
6310,1199,748
6315,1184,746
6320,1193,756
6325,1189,747
6330,1191,747
6335,1186,751
6340,1186,743
6345,1188,747
6350,1176,743
6355,1184,745
6360,1170,746
6365,1174,748
6370,1164,752
6375,1167,757
6380,1153,752
6385,1159,759
6390,1161,753
6395,1146,755
6400,1152,762
6405,1134,768
6410,1141,768
6415,1133,765
6420,1135,767
6425,1135,771
6430,1123,778
6435,1124,777
6440,1117,781
6445,1116,779
6450,1118,788
6455,1111,785
6460,1109,793
6465,1097,791
6470,1102,801
6475,1094,799
6480,1101,806
6485,1104,804
6490,1101,808
6495,1085,812
6500,1094,818
6505,1086,819
6510,1091,821
6515,1082,821
6520,1071,815
6525,1078,820
6530,1066,829
6535,1072,825
6540,1063,831
6545,1058,831
6550,1049,831
6555,1040,839
6560,1041,832
6565,1048,840
6570,1025,837
6575,1037,836
6580,1019,839
6585,1011,840
6590,1004,843
6595,1008,837
6600,991,840
6605,982,842
6610,972,833
6615,963,841
6620,957,835
6625,949,835
6630,935,839
6635,929,836
6640,928,838
6645,905,830
6650,894,833
6655,877,829
6660,878,838
6665,867,831
6670,852,833
6675,845,833
6680,832,827
6685,817,829
6690,807,825
6695,811,830
6700,799,829
6705,788,830
6710,786,826
6715,768,821
6720,761,824
6725,763,822
6730,755,823
6735,759,820
6740,745,820
6745,757,818
6750,741,824
6755,747,815
6760,754,821
6765,760,817
6770,750,822
6775,757,816
6780,761,816
6785,761,816
6790,760,816
6795,767,815
6800,785,817
6805,796,815
6810,809,814
6815,810,809
6820,815,814
6825,831,808
6830,833,810
6835,853,804
6840,853,806
6845,875,809
6850,892,803
6855,899,803
6860,912,801
6865,922,799
6870,950,796
6875,965,793
6880,970,798
6885,983,794
6890,984,796
6895,1025,787
6900,1022,790
6905,1033,790
6910,1045,782
6915,1069,782
6920,1075,781
6925,1095,774
6930,1101,778
6935,1112,774
6940,1121,773
6945,1131,768
6950,1135,766
6955,1142,768
6960,1145,764
6965,1160,763
6970,1161,755
6975,1175,759
6980,1175,753
6985,1180,756
6990,1175,755
6995,1182,749
7000,1173,752
7005,1180,749
7010,1188,746
7015,1192,751
7020,1187,751
7025,1192,744
7030,1190,747
7035,1185,749
7040,1183,750
7045,1178,746
7050,1178,746
7055,1166,746
7060,1168,750
7065,1168,752
7070,1161,751
7075,1156,750
7080,1158,760
7085,1150,758
7090,1157,758
7095,1144,759
7100,1142,766
7105,1142,765
7110,1139,763
7115,1129,774
7120,1117,773
7125,1113,780
7130,1121,782
7135,1111,787
7140,1123,788
7145,1116,787
7150,1107,794
7155,1102,794
7160,1099,795
7165,1096,798
7170,1097,801
7175,1097,811
7180,1100,804
7185,1085,814
7190,1086,811
7195,1085,816
7200,1082,821
7205,1083,818
7210,1082,828
7215,1068,824
7220,1066,830
7225,1066,831
7230,1057,828
7235,1060,834
7240,1052,834
7245,1053,835
7250,1048,834
7255,1035,835
7260,1034,836
7265,1027,831
7270,1029,832
7275,1012,839
7280,1012,833
7285,1004,841
7290,976,840
7295,977,847
7300,964,840
7305,973,837
7310,961,842
7315,946,839
7320,942,837
7325,920,838
7330,929,836
7335,902,830
7340,904,833
7345,888,832
7350,872,833
7355,868,829
7360,858,836
7365,845,829
7370,839,831
7375,822,830
7380,809,831
7385,793,829
7390,803,828
7395,784,828
7400,778,828
7405,777,823
7410,765,821
7415,777,818
7420,766,822
7425,750,827
7430,754,816
7435,748,819
7440,751,818
7445,750,816
7450,746,819
7455,747,817
7460,750,823
7465,750,823
7470,754,824
7475,764,817
7480,759,820
7485,767,815
7490,773,810
7495,796,812
7500,790,812
7505,811,808
7510,813,815
7515,819,812
7520,830,805
7525,845,811
7530,856,803
7535,872,807
7540,885,800
7545,901,805
7550,906,803
7555,928,799
7560,946,799
7565,948,792
7570,975,802
7575,982,790
7580,997,793
7585,1020,792
7590,1026,788
7595,1047,781
7600,1048,782
7605,1060,783
7610,1076,781
7615,1083,778
7620,1096,779
7625,1104,773
7630,1114,771
7635,1118,768
7640,1135,767
7645,1153,765
7650,1156,759
7655,1159,762
7660,1157,762
7665,1177,758
7670,1170,756
7675,1182,755
7680,1179,752
7685,1179,755
7690,1180,751
7695,1184,749
7700,1193,748
7705,1187,751
7710,1179,749
7715,1180,746
7720,1185,748
7725,1177,745
7730,1167,746
7735,1178,746
7740,1178,749
7745,1176,750
7750,1174,750
7755,1163,749
7760,1165,751
7765,1159,754
7770,1154,752
7775,1151,754
7780,1146,760
7785,1146,758
7790,1146,760
7795,1139,772
7800,1140,772
7805,1129,770
7810,1130,772
7815,1117,778
7820,1118,777
7825,1115,786
7830,1117,784
7835,1106,787
7840,1106,791
7845,1099,793
7850,1108,799
7855,1093,796
7860,1098,807
7865,1095,803
7870,1096,805
7875,1091,804
7880,1089,809
7885,1101,819
7890,1082,815
7895,1078,820
7900,1078,821
7905,1075,828
7910,1059,822
7915,1069,829
7920,1061,833
7925,1062,832
7930,1056,831
7935,1064,837
7940,1046,836
7945,1029,839
7950,1032,835
7955,1025,836
7960,1015,832
7965,1011,838
7970,1012,839
7975,995,838
7980,990,840
7985,984,840
7990,973,835
7995,972,838
8000,957,833
8005,950,836
8010,933,832
8015,923,831
8020,916,838
8025,912,833
8029,897,836
8035,883,836
8039,882,829
8045,861,838
8050,852,833
8055,842,826
8060,832,830
8064,826,828
8070,817,830
8074,810,831
8080,794,828
8085,801,830
8090,782,814
8095,774,828
8100,774,824
8105,762,828
8109,766,823
8115,761,823
8119,752,821
8125,755,816
8130,742,820
8135,747,829
8140,756,823
8145,753,823
8150,748,822
8154,738,817
8160,757,816
8164,758,814
8170,771,821
8175,764,817
8180,772,814
8185,779,817
8189,800,816
8195,800,808
8200,814,810
8205,825,809
8210,847,812
8215,853,811
8220,858,806
8225,864,803
8230,887,808
8235,893,802
8240,897,798
8245,923,797
8250,929,795
8255,945,797
8260,960,803
8265,977,797
8270,998,789
8275,1014,792
8280,1016,790
8285,1037,794
8290,1047,785
8295,1056,780
8300,1081,779
8305,1089,780
8310,1088,772
8315,1098,782
8320,1113,770
8325,1124,766
8330,1146,766
8335,1149,769
8340,1152,766
8345,1150,762
8350,1165,759
8355,1174,756
8360,1172,753
8365,1185,757
8370,1174,755
8375,1183,746
8380,1190,752
8385,1185,749
8390,1184,750
8395,1193,749
8400,1185,744
8405,1193,747
8410,1183,743
8415,1186,749
8420,1179,745
8425,1189,749
8430,1183,743
8435,1183,746
8440,1171,751
8445,1170,748
8450,1169,749
8455,1159,755
8460,1156,758
8465,1153,753
8470,1150,763
8475,1148,766
8480,1144,761
8485,1133,770
8490,1134,768
8495,1131,770
8500,1132,773
8505,1127,776
8510,1120,780
8515,1107,779
8520,1120,783
8525,1106,786
8530,1110,789
8535,1097,796
8540,1106,797
8545,1105,800
8550,1103,800
8555,1094,803
8560,1097,809
8565,1093,810
8570,1088,813
8575,1078,813
8580,1081,818
8585,1076,818
8590,1079,821
8595,1075,824
8600,1067,828
8605,1069,820
8610,1071,830
8615,1059,827
8620,1054,832
8625,1051,837
8630,1051,836
8635,1036,838
8640,1034,838
8645,1033,838
8650,1020,837
8655,1017,839
8660,1014,838
8665,1001,840
8670,998,839
8675,995,839
8680,976,834
8685,964,839
8690,964,832
8695,949,837
8700,938,839
8705,922,833
8710,913,833
8715,908,834
8720,898,832
8725,898,833
8730,885,832
8735,872,833
8740,861,826
8745,852,833
8750,844,831
8755,826,834
8760,819,826
8765,810,827
8770,798,822
8775,800,830
8780,792,824
8785,796,822
8790,778,826
8795,769,820
8800,760,823
8805,739,820
8810,757,822
8815,748,823
8820,752,822
8825,756,820
8830,746,815
8835,745,818
8840,743,819
8845,751,821
8850,751,815
8855,757,819
8860,768,816
8865,769,820
8870,781,810
8875,785,811
8880,790,812
8885,804,813
8890,816,806
8895,824,810
8900,832,814
8905,847,811
8910,854,808
8915,864,808
8920,890,805
8925,894,805
8930,906,807
8935,922,797
8940,942,804
8945,949,799
8950,967,800
8955,984,796
8960,992,789
8965,1003,793
8970,1022,788
8975,1032,782
8980,1050,781
8985,1059,780
8990,1072,780
8995,1081,781
9000,1094,771
9005,1108,775
9010,1119,770
9015,1124,769
9020,1130,765
9025,1141,766
9030,1139,763
9035,1154,765
9040,1155,761
9045,1165,758
9050,1164,755
9055,1170,760
9060,1181,758
9065,1184,752
9070,1183,753
9075,1190,750
9080,1191,744
9085,1183,754
9090,1197,740
9095,1193,744
9100,1184,742
9105,1178,751
9110,1185,753
9115,1177,748
9120,1181,746
9125,1180,755
9130,1158,754
9135,1165,747
9140,1168,749
9145,1159,754
9150,1159,758
9155,1159,756
9160,1152,757
9165,1153,761
9170,1133,759
9175,1139,770
9180,1142,766
9185,1127,769
9190,1120,766
9195,1130,775
9200,1117,779
9205,1111,778
9210,1118,786
9215,1112,788
9220,1106,788
9225,1105,794
9230,1103,793
9235,1107,799
9240,1102,798
9245,1098,806
9250,1095,807
9255,1085,814
9260,1100,815
9265,1085,813
9270,1083,815
9275,1082,821
9280,1070,822
9285,1079,826
9290,1080,825
9295,1066,830
9300,1065,833
9305,1066,829
9310,1059,831
9315,1052,834
9320,1047,839
9325,1042,832
9330,1035,842
9335,1029,840
9340,1027,842
9345,1021,839
9350,1008,840
9355,1007,839
9360,988,836
9365,991,836
9370,975,840
9375,971,841
9380,962,840
9385,947,835
9390,938,840
9395,932,835
9400,914,838
9405,914,839
9410,906,836
9415,881,832
9420,872,834
9425,869,832
9430,856,829
9435,857,832
9440,850,826
9445,831,828
9450,827,830
9455,803,833
9460,798,829
9465,789,828
9470,781,828
9475,772,826
9480,771,825
9485,774,824
9490,767,825
9495,762,819
9500,750,824
9505,751,820
9510,753,819
9515,741,823
9520,741,817
9525,750,814
9530,753,816
9535,758,818
9540,750,821
9545,763,819
9550,754,820
9555,763,820
9560,774,815
9565,779,808
9570,795,816
9575,801,814
9580,803,810
9585,823,813
9590,828,812
9595,843,807
9600,854,813
9605,872,809
9610,882,807
9615,897,803
9620,906,804
9625,916,804
9630,944,800
9635,946,797
9640,962,793
9645,984,795
9650,993,796
9655,1009,791
9660,1016,787
9665,1036,787
9670,1042,788
9675,1056,782
9680,1067,783
9685,1079,775
9690,1081,777
9695,1105,778
9700,1110,771
9705,1129,772
9710,1142,769
9715,1146,762
9720,1147,771
9725,1161,754
9730,1164,755
9735,1166,761
9740,1172,762
9745,1181,754
9750,1183,755
9755,1184,754
9760,1187,744
9765,1189,749
9770,1188,749
9775,1192,752
9780,1178,753
9785,1187,744
9790,1195,741
9795,1180,745
9800,1185,750
9805,1176,746
9810,1183,748
9815,1172,750
9820,1173,752
9825,1176,750
9830,1163,749
9835,1160,757
9840,1154,749
9845,1146,758
9850,1161,756
9855,1152,762
9860,1147,761
9865,1133,768
9870,1137,768
9875,1122,772
9880,1132,769
9885,1126,773
9890,1125,781
9895,1122,780
9900,1108,783
9905,1116,784
9910,1111,791
9915,1104,794
9920,1101,796
9925,1096,800
9930,1100,803
9935,1086,802
9940,1092,808
9945,1092,809
9950,1076,812
9955,1090,816
9960,1084,814
9965,1082,819
9970,1082,819
9975,1075,822
9980,1081,828
9985,1071,823
9990,1066,834
9995,1073,827
10000,1056,835
10005,1038,834
10010,1050,837
10015,1039,834
10020,1038,833
10025,1026,837
10030,1023,839
10035,1015,832
10040,1013,836
10045,1002,838
10050,993,836
10055,987,838
10060,976,841
10065,972,837
10070,956,841
10075,955,837
10080,949,841
10085,933,835
10090,922,835
10095,918,831
10100,907,836
10105,894,838
10110,879,829
10115,875,829
10120,860,834
10125,846,833
10130,836,830
10135,832,828
10140,819,828
10145,816,826
10150,800,829
10155,797,824
10160,782,823
10165,783,823
10170,775,827
10175,765,820
10180,766,825
10185,761,822
10190,756,824
10195,743,820
10200,744,817
10205,740,824
10210,744,820
10215,755,817
10220,742,816
10225,750,815
10230,760,821
10235,751,815
10240,762,813
10245,765,815
10250,772,812
10255,778,816
10260,782,818
10265,791,810
10270,804,815
10275,817,816
10280,839,804
10285,839,807
10290,850,809
10295,874,806
10300,887,802
10305,890,802
10310,908,807
10315,924,805
10320,932,802
10325,949,806
10330,963,792
10335,980,795
10340,985,797
10345,1005,799
10350,1016,786
10355,1033,784
10360,1039,784
10365,1053,777
10370,1059,776
10375,1078,780
10380,1087,778
10385,1109,779
10390,1112,774
10395,1118,765
10400,1126,767
10405,1142,764
10410,1144,760
10415,1142,755
10420,1163,754
10425,1165,759
10430,1168,756
10435,1172,748
10440,1180,754
10445,1189,751
10450,1184,748
10455,1196,746
10460,1186,746
10465,1180,742
10470,1181,744
10475,1188,750
10480,1189,750
10485,1184,743
10490,1186,744
10495,1181,754
10500,1177,746
10505,1183,749
10510,1175,747
10515,1173,754
10520,1161,749
10525,1166,756
10530,1160,755
10535,1160,759
10540,1153,764
10545,1140,763
10550,1149,763
10555,1135,768
10560,1134,773
10565,1125,766
10570,1130,772
10575,1126,773
10580,1112,778
10585,1107,782
10590,1120,775
10595,1115,788
10600,1116,786
10605,1103,791
10610,1096,794
10615,1097,797
10620,1096,800
10625,1091,800
10630,1089,807
10635,1097,807
10640,1084,812
10645,1080,812
10650,1085,819
10655,1078,819
10660,1076,819
10665,1078,824
10670,1068,826
10675,1075,827
10680,1062,830
10685,1059,830
10690,1068,828
10695,1055,832
10700,1048,834
10705,1049,834
10710,1037,837
10715,1027,838
10720,1031,838
10725,1020,838
10730,1013,843
10735,1000,837
10740,999,842
10745,985,841
10750,974,835
10755,969,836
10760,963,844
10765,955,844
10770,945,838
10775,927,838
10780,920,839
10785,921,830
10790,907,835
10795,892,836
10800,874,829
10805,866,829
10810,858,831
10815,857,825
10820,846,832
10825,837,832
10830,819,820
10835,822,827
10840,809,826
10845,803,829
10850,787,824
10855,780,827
10860,774,826
10865,768,817
10870,758,827
10875,760,822
10880,762,821
10885,756,820
10890,747,820
10895,746,821
10900,741,825
10905,748,826
10910,749,821
10915,746,815
10920,749,821
10925,777,812
10930,763,825
10935,772,816
10940,773,815
10945,782,817
10950,791,813
10955,789,814
10960,809,815
10965,819,811
10970,831,814
10975,840,806
10980,854,803
10985,862,810
10990,876,807
10995,891,800
11000,905,801
11005,913,805
11010,930,803
11015,942,794
11020,961,795
11025,974,798
11030,985,796
11035,1000,794
11040,1007,793
11045,1025,784
11050,1045,785
11055,1057,780
11060,1066,781
11065,1080,776
11070,1092,774
11075,1101,772
11080,1116,766
11085,1118,767
11090,1130,764
11095,1146,765
11100,1154,762
11105,1163,763
11110,1156,761
11115,1170,754
11120,1168,757
11125,1176,754
11130,1177,750
11135,1182,753
11140,1191,751
11145,1193,751
11150,1189,748
11155,1192,748
11160,1191,750
11165,1181,742
11170,1185,744
11175,1176,752
11180,1183,749
11185,1174,744
11190,1177,747
11195,1166,747
11200,1178,750
11205,1168,754
11210,1157,752
11215,1161,749
11220,1159,756
11225,1152,757
11230,1155,758
11235,1161,759
11240,1140,763
11245,1141,766
11250,1137,763
11255,1140,770
11260,1132,773
11265,1127,772
11270,1129,778
11275,1116,781
11280,1118,784
11285,1117,787
11290,1115,790
11295,1108,788
11300,1098,793
11305,1113,802
11310,1104,800
11315,1098,807
11320,1086,806
11325,1087,808
11330,1091,815
11335,1093,819
11340,1087,815
11345,1085,813
11350,1089,819
11355,1074,822
11360,1066,826
11365,1060,826
11370,1060,829
11375,1070,832
11380,1052,829
11385,1048,832
11390,1052,829
11395,1037,836
11400,1034,839
11405,1035,839
11410,1023,836
11415,1017,836
11420,1008,836
11425,1010,839
11430,1004,842
11435,990,842
11440,967,839
11445,971,834
11450,965,836
11455,946,835
11460,943,841
11465,931,834
11470,924,839
11475,913,835
11480,907,834
11485,891,838
11490,890,839
11495,873,832
11500,856,826
11505,856,832
11510,852,832
11515,844,832
11520,824,829
11525,818,829
11530,815,831
11535,798,821
11540,789,828
11545,783,824
11550,776,823
11555,774,826
11560,754,824
11565,755,825
11570,757,825
11575,753,816
11580,758,822
11585,747,821
11590,756,820
11595,749,819
11600,749,820
11605,745,816
11610,752,815
11615,758,821
11620,761,819
11625,760,816
11630,771,814
11635,777,816
11640,791,812
11645,801,811
11650,807,805
11655,821,812
11660,836,812
11665,835,809
11670,864,806
11675,868,809
11680,879,808
11685,891,803
11690,902,803
11695,907,801
11700,938,796
11705,950,800
11710,958,791
11715,971,796
11720,989,791
11725,1001,794
11730,1000,789
11735,1020,786
11740,1045,782
11745,1051,780
11750,1061,779
11755,1082,779
11760,1093,776
11765,1095,776
11770,1104,774
11775,1114,771
11780,1131,764
11785,1136,767
11790,1151,761
11795,1151,761
11800,1164,762
11805,1162,759
11810,1175,758
11815,1183,755
11820,1170,756
11825,1182,754
11830,1182,754
11835,1186,750
11840,1191,750
11845,1192,751
11850,1190,746
11855,1181,744
11860,1182,744
11865,1189,749
11870,1190,744
11875,1183,752
11880,1183,749
11885,1177,752
11890,1180,755
11895,1162,753
11900,1165,754
11905,1162,755
11910,1172,753
11915,1153,759
11920,1156,756
11925,1145,759
11930,1144,758
11935,1145,767
11940,1141,764
11945,1128,763
11950,1131,773
11955,1128,772
11960,1125,769
11965,1125,783
11970,1112,785
11975,1108,786
11980,1106,792
11985,1109,789
11990,1106,792
11995,1095,795
12000,1098,803
12005,1102,806
12010,1093,807
12015,1092,811
12020,1090,810
12025,1081,811
12030,1077,812
12035,1083,823
12040,1076,821
12045,1071,821
12050,1072,824
12055,1065,826
12060,1068,829
12065,1060,828
12070,1053,833
12075,1055,836
12080,1046,835
12085,1035,836
12090,1032,835
12095,1031,837
12100,1025,838
12105,1019,839
12110,1011,840
12115,1017,844
12120,1004,842
12125,984,841
12130,993,832
12135,976,841
12140,965,838
12145,955,836
12150,952,836
12155,940,835
12160,930,835
12165,917,833
12170,903,832
12175,899,836
12180,897,833
12185,875,835
12190,872,832
12195,847,834
12200,847,828
12205,831,825
12210,819,831
12215,817,826
12220,799,823
12225,798,826
12230,786,823
12235,783,832
12240,777,827
12245,775,822
12250,762,828
12255,762,821
12260,752,822
12265,758,818
12270,754,821
12275,751,816
12280,753,824
12285,751,817
12290,748,816
12295,758,819
12300,761,814
12305,751,818
12310,760,814
12315,762,818
12320,772,817
12325,773,815
12330,786,818
12335,794,816
12340,815,815
12345,809,812
12350,824,811
12355,830,812
12360,846,810
12365,871,814
12370,871,807
12375,885,809
12380,896,804
12385,915,805
12390,918,800
12395,950,799
12400,953,801
12405,972,793
12410,976,797
12415,994,793
12420,1006,789
12425,1024,786
12430,1045,786
12435,1051,782
12440,1064,783
12445,1069,780
12450,1088,776
12455,1100,775
12460,1116,775
12465,1123,774
12470,1123,770
12475,1128,766
12480,1138,767
12485,1142,760
12490,1152,765
12495,1163,758
12500,1176,757
12505,1178,756
12510,1185,751
12515,1178,749
12520,1184,750
12525,1188,747
12530,1184,746
12535,1183,751
12540,1184,746
12545,1185,744
12550,1182,748
12555,1188,746
12560,1186,742
12565,1187,748
12570,1186,745
12575,1179,749
12580,1180,745
12585,1166,748
12590,1172,749
12595,1154,749
12600,1154,757
12605,1157,754
12610,1153,758
12615,1144,758
12620,1154,761
12625,1141,768
12630,1138,767
12635,1137,772
12640,1124,768
12645,1128,772
12650,1126,776
12655,1114,782
12660,1119,782
12665,1121,783
12670,1097,786
12675,1115,792
12680,1102,796
12685,1109,798
12690,1096,800
12695,1087,804
12700,1096,804
12705,1094,811
12710,1096,815
12715,1098,815
12720,1088,816
12725,1087,823
12730,1086,823
12735,1076,820
12740,1077,826
12745,1081,827
12750,1064,827
12755,1068,838
12760,1064,832
12765,1049,831
12770,1050,837
12775,1048,836
12780,1037,837
12785,1029,831
12790,1034,832
12795,1023,842
12800,1020,840
12805,1014,840
12810,1008,839
12815,987,842
12820,984,835
12825,973,836
12830,967,838
12835,969,836
12840,955,833
12845,943,834
12850,930,834
12855,921,837
12860,904,834
12865,879,827
12870,888,834
12875,877,833
12880,871,827
12885,849,829
12890,846,832
12895,831,831
12900,834,828
12905,823,827
12910,807,824
12915,790,827
12920,792,830
12925,778,826
12930,784,823
12935,766,825
12940,758,826
12945,768,820
12950,756,824
12955,756,824
12960,751,822
12965,743,822
12970,744,819
12975,742,813
12980,746,818
12985,748,819
12990,756,825
12995,757,819
13000,749,816
13005,766,816
13010,767,809
13015,783,812
13020,788,819
13025,792,814
13030,806,817
13035,813,807
13040,824,814
13045,845,813
13050,852,811
13055,848,810
13060,869,808
13065,900,802
13070,886,801
13075,914,807
13080,926,801
13085,938,797
13090,958,803
13095,967,789
13100,986,791
13105,994,794
13110,1016,783
13115,1023,787
13120,1043,784
13125,1051,785
13130,1066,789
13135,1070,777
13140,1086,775
13145,1106,776
13150,1096,774
13155,1116,766
13160,1126,771
13165,1135,768
13170,1141,770
13175,1151,762
13180,1152,766
13185,1162,760
13190,1170,753
13195,1166,759
13200,1177,754
13205,1182,750
13210,1181,753
13215,1188,753
13220,1190,749
13225,1182,748
13230,1188,746
13235,1190,743
13240,1184,751
13245,1190,746
13250,1185,746
13255,1178,742
13260,1191,746
13265,1173,746
13270,1177,751
13275,1175,747
13280,1169,756
13285,1161,749
13290,1159,746
13295,1158,754
13300,1155,759
13305,1156,758
13310,1136,761
13315,1136,762
13320,1143,769
13325,1129,771
13330,1127,768
13335,1129,776
13340,1124,784
13345,1112,779
13350,1123,782
13355,1116,786
13360,1104,790
13365,1112,785
13370,1103,792
13375,1093,797
13380,1104,799
13385,1102,798
13390,1094,806
13395,1091,807
13400,1087,808
13405,1092,808
13410,1079,815
13415,1076,822
13420,1083,816
13425,1075,826
13430,1074,820
13435,1068,828
13440,1074,827
13445,1060,832
13450,1050,828
13455,1054,833
13460,1054,831
13465,1048,834
13470,1043,838
13475,1040,836
13480,1016,836
13485,1023,834
13490,1016,839
13495,1013,839
13500,1005,837
13505,991,838
13510,985,839
13515,976,839
13520,966,842
13525,953,836
13530,946,837
13535,940,836
13540,924,842
13545,909,846
13550,907,840
13555,897,835
13560,886,834
13565,874,835
13570,865,834
13575,861,831
13580,848,831
13585,831,826
13590,834,832
13595,815,826
13600,806,827
13605,801,834
13610,795,822
13615,786,826
13620,782,824
13625,770,831
13630,774,829
13635,763,821
13640,759,821
13645,758,821
13650,757,821
13655,749,818
13660,745,823
13665,752,820
13670,748,820
13675,743,819
13680,750,817
13685,758,816
13690,756,815
13695,760,819
13700,774,811
13705,780,811
13710,786,816
13715,787,816
13720,802,812
13725,806,816
13730,823,812
13735,833,813
13740,847,812
13745,860,811
13750,868,806
13755,884,807
13760,908,806
13765,911,804
13770,920,800
13775,931,801
13780,944,794
13785,964,795
13790,983,796
13795,987,791
13800,1012,788
13805,1023,789
13810,1035,787
13815,1046,789
13820,1060,781
13825,1067,774
13830,1075,778
13835,1098,778
13840,1109,776
13845,1115,771
13850,1122,770
13855,1129,766
13860,1148,766
13865,1144,762
13870,1150,761
13875,1160,761
13880,1167,758
13885,1172,755
13890,1175,748
13895,1185,754
13900,1180,751
13905,1188,752
13910,1190,751
13915,1176,747
13920,1186,745
13925,1181,746
13930,1187,751
13935,1185,751
13940,1189,745
13945,1183,745
13950,1179,748
13955,1178,755
13960,1179,745
13965,1170,745
13970,1168,753
13975,1176,757
13980,1160,756
13985,1154,749
13990,1145,762
13995,1156,762
14000,1147,766
14005,1143,761
14010,1133,766
14015,1136,770
14020,1135,771
14025,1127,769
14030,1124,772
14035,1119,781
14040,1117,782
14045,1103,788
14050,1112,795
14055,1119,788
14060,1115,794
14065,1102,795
14070,1098,803
14075,1091,798
14080,1093,807
14085,1092,808
14090,1087,808
14095,1098,811
14100,1086,813
14105,1086,821
14110,1081,821
14115,1078,823
14120,1070,820
14125,1066,821
14130,1070,830
14135,1062,834
14140,1054,828
14145,1069,836
14150,1056,833
14155,1049,834
14160,1039,842
14165,1037,837
14170,1028,839
14175,1026,837
14180,1009,840
14185,1014,839
14190,1011,836
14195,1002,841
14200,987,838
14205,968,844
14210,973,839
14215,959,838
14220,954,837
14225,937,841
14230,931,835
14235,921,837
14240,916,833
14245,901,828
14250,887,832
14255,882,832
14260,869,831
14265,858,826
14270,850,828
14275,835,827
14280,829,836
14285,833,833
14290,808,821
14295,801,826
14300,795,831
14305,782,826
14310,782,827
14315,767,824
14320,773,824
14325,758,825
14330,754,823
14335,749,828
14340,751,821
14345,751,823
14350,753,819
14355,743,819
14360,746,815
14365,745,820
14370,752,817
14375,758,819
14380,752,818
14385,759,818
14390,780,818
14395,787,815
14400,785,813
14405,792,814
14410,804,806
14415,817,809
14420,821,811
14425,840,806
14430,854,811
14435,859,805
14440,871,805
14445,884,805
14450,896,806
14455,902,803
14460,926,795
14465,935,797
14470,948,801
14475,960,800
14480,981,802
14485,998,789
14490,1004,790
14495,1025,790
14500,1037,784
14505,1041,788
14510,1053,784
14515,1070,783
14520,1095,776
14525,1098,775
14530,1111,774
14535,1104,777
14540,1126,771
14545,1128,772
14550,1148,766
14555,1142,760
14560,1152,761
14565,1155,756
14570,1160,762
14575,1172,751
14580,1176,754
14585,1170,752
14590,1179,756
14595,1174,749
14600,1176,751
14605,1198,752
14610,1187,746
14615,1195,744
14620,1190,749
14625,1175,744
14630,1175,751
14635,1185,749
14640,1187,748
14645,1181,751
14650,1176,752
14655,1163,751
14660,1172,749
14665,1158,751
14670,1167,756
14675,1171,755
14680,1149,754
14685,1154,754
14690,1146,763
14695,1148,764
14700,1130,768
14705,1137,768
14710,1132,768
14715,1125,778
14720,1131,777
14725,1118,773
14730,1124,780
14735,1108,787
14740,1110,787
14745,1103,791
14750,1115,798
14755,1102,797
14760,1104,799
14765,1104,800
14770,1097,804
14775,1096,808
14780,1093,811
14785,1089,809
14790,1083,815
14795,1082,819
14800,1086,821
14805,1080,821
14810,1077,823
14815,1071,824
14820,1077,831
14825,1061,825
14830,1056,830
14835,1056,829
14840,1044,834
14845,1047,837
14850,1033,835
14855,1040,838
14860,1032,836
14865,1025,835
14870,1020,837
14875,1002,845
14880,1009,840
14885,1002,839
14890,985,838
14895,986,838
14900,975,841
14905,954,835
14910,948,841
14915,943,840
14920,930,838
14925,916,830
14930,917,838
14935,900,836
14940,891,836
14945,881,832
14950,870,836
14955,861,831
14960,847,834
14965,842,828
14970,823,830
14975,824,836
14980,811,822
14985,803,833
14990,801,827
14995,783,827
15000,783,825
15005,773,821
15010,767,821
15015,761,820
15020,760,823
15025,755,822
15030,749,819
15035,752,813
15040,754,815
15045,746,822
15050,747,821
15055,750,817
15060,756,820
15065,753,817
15070,754,818
15075,764,821
15080,772,810
15085,779,817
15090,783,812
15095,788,815
15100,802,814
15105,817,809
15110,822,816
15115,824,817
15120,842,809
15125,858,807
15130,860,807
15135,880,807
15140,886,806
15145,910,808
15150,912,799
15155,934,806
15160,956,799
15165,967,797
15170,976,796
15175,996,796
15180,998,790
15185,1015,789
15190,1030,786
15195,1045,783
15200,1067,788
15205,1068,779
15210,1070,775
15215,1085,779
15220,1104,775
15225,1112,774
15230,1115,767
15235,1130,769
15240,1146,768
15245,1155,764
15250,1155,764
15255,1148,759
15260,1171,756
15265,1170,759
15270,1178,758
15275,1178,756
15280,1195,754
15285,1183,753
15290,1185,751
15295,1186,752
15300,1181,748
15305,1186,750
15310,1191,746
15315,1186,745
15320,1194,747
15325,1186,752
15330,1187,741
15335,1179,751
15340,1191,748
15345,1176,751
15350,1177,752
15355,1172,752
15360,1162,760
15365,1154,752
15370,1167,756
15375,1153,754
15380,1143,760
15385,1138,769
15390,1136,766
15395,1126,764
15400,1140,768
15405,1131,771
15410,1125,777
15415,1119,777
15420,1121,778
15425,1127,783
15430,1117,788
15435,1110,791
15440,1111,787
15445,1102,795
15450,1109,797
15455,1095,802
15460,1098,799
15465,1097,804
15470,1094,805
15475,1093,814
15480,1077,815
15485,1085,818
15490,1081,817
15495,1077,823
15500,1080,824
15505,1073,830
15510,1072,825
15515,1062,831
15520,1068,834
15525,1054,827
15530,1056,837
15535,1061,836
15540,1041,828
15545,1035,840
15550,1031,838
15555,1030,839
15560,1020,838
15565,1021,838
15570,1005,834
15575,990,839
15580,992,839
15585,985,839
15590,971,839
15595,962,838
15600,952,836
15605,947,840
15610,941,830
15615,918,835
15620,917,836
15625,902,835
15630,892,835
15635,880,832
15640,875,826
15645,854,826
15650,850,830
15655,840,829
15660,834,828
15665,820,831
15670,818,826
15675,804,825
15680,799,828
15685,796,829
15690,784,827
15695,776,826
15700,769,822
15705,756,825
15710,760,819
15715,757,819
15720,746,822
15725,737,822
15730,759,821
15735,749,821
15740,739,822
15745,754,822
15750,755,821
15755,757,815
15760,769,815
15765,763,816
15770,771,815
15775,775,812
15780,781,813
15785,790,815
15790,798,815
15795,800,811
15800,821,819
15805,826,806
15810,839,816
15815,857,810
15820,868,807
15825,872,802
15830,887,801
15835,906,803
15840,913,800
15845,926,796
15850,950,798
15855,957,797
15860,970,796
15865,982,790
15870,1005,787
15875,1014,787
15880,1020,789
15885,1046,790
15890,1051,788
15895,1070,778
15900,1083,774
15905,1089,777
15910,1106,776
15915,1108,770
15920,1127,768
15925,1131,767
15930,1142,767
15935,1148,764
15940,1151,765
15945,1156,765
15950,1163,759
15955,1173,754
15960,1174,759
15965,1186,750
15970,1182,754
15975,1173,749
15980,1185,754
15985,1188,753
15990,1179,743
15995,1192,752
16000,1190,748
16004,1183,747
16010,1177,750
16015,1184,745
16020,1184,743
16024,1183,749
16030,1181,756
16035,1167,747
16040,1171,753
16045,1163,752
16050,1161,749
16055,1158,754
16059,1160,753
16065,1145,755
16070,1147,766
16075,1144,756
16079,1137,770
16085,1127,766
16090,1128,770
16094,1123,773
16100,1120,776
16105,1120,777
16110,1109,783
16114,1119,786
16120,1110,790
16125,1102,785
16129,1114,799
16135,1104,797
16140,1103,794
16145,1094,799
16149,1096,799
16155,1098,807
16160,1092,805
16165,1086,811
16170,1087,813
16175,1086,816
16180,1074,820
16184,1072,822
16190,1079,820
16195,1084,821
16200,1066,834
16204,1062,828
16210,1059,831
16215,1051,827
16219,1052,826
16225,1041,833
16230,1046,836
16235,1040,837
16239,1033,834
16245,1032,841
16250,1007,836
16254,1007,837
16260,1008,843
16265,1002,839
16270,982,841
16274,981,835
16280,974,835
16285,963,838
16290,953,837
16295,941,838
16300,935,834
16305,930,840
16309,904,835
16315,902,838
16320,895,832
16325,880,831
16329,872,831
16335,865,830
16340,860,836
16344,837,826
16350,831,832
16355,821,828
16360,815,829
16364,799,823
16370,795,827
16375,789,824
16379,783,829
16385,773,825
16390,773,824
16395,769,822
16400,763,820
16405,751,819
16410,765,825
16415,761,824
16420,744,819
16425,761,820
16430,743,820
16435,744,820
16440,748,819
16445,752,821
16450,756,820
16455,769,819
16460,756,819
16465,780,816
16470,787,812
16475,793,817
16480,798,814
16485,803,811
16490,818,809
16495,832,813
16500,844,811
16505,847,819
16510,867,806
16515,869,809
16520,899,802
16525,905,801
16530,909,797
16535,923,803
16540,942,794
16545,955,794
16550,976,798
16555,986,789
16560,988,790
16565,1005,797
16570,1037,791
16575,1038,783
16580,1052,775
16585,1062,783
16590,1075,778
16595,1089,775
16600,1097,768
16605,1108,769
16610,1115,771
16615,1133,767
16620,1139,767
16625,1149,772
16630,1158,761
16635,1152,766
16640,1169,763
16645,1177,754
16650,1173,752
16655,1177,754
16660,1181,755
16665,1177,750
16670,1185,749
16675,1191,756
16680,1192,750
16685,1190,750
16690,1185,748
16695,1176,750
16700,1184,747
16705,1189,742
16710,1183,749
16715,1173,750
16720,1169,752
16725,1174,749
16730,1169,744
16735,1163,753
16740,1173,748
16745,1163,753
16750,1160,756
16755,1160,761
16760,1144,761
16765,1138,759
16770,1132,762
16775,1138,764
16780,1125,768
16785,1127,769
16790,1122,774
16795,1121,770
16800,1117,778
16805,1119,783
16810,1118,784
16815,1125,792
16820,1114,795
16825,1102,799
16830,1098,798
16835,1093,800
16840,1096,802
16845,1101,806
16850,1092,808
16855,1088,814
16860,1094,813
16865,1079,817
16870,1085,815
16875,1083,823
16880,1073,822
16885,1067,831
16890,1062,831
16895,1060,835
16900,1060,829
16905,1055,830
16910,1057,834
16915,1042,836
16920,1048,833
16925,1046,839
16930,1036,833
16935,1022,836
16940,1018,835
16945,1016,841
16950,1008,842
16955,1001,840
16960,992,834
16965,977,842
16970,981,840
16975,960,838
16980,958,838
16985,945,837
16990,937,836
16995,919,839
17000,921,831
17005,903,838
17010,899,834
17015,877,831
17020,871,831
17025,866,831
17030,858,825
17035,850,829
17040,828,832
17045,825,831
17050,812,828
17055,800,823
17060,789,824
17065,792,829
17070,791,833
17075,768,821
17080,770,826
17085,763,827
17090,763,818
17095,750,822
17100,756,821
17105,752,817
17110,759,815
17115,744,823
17120,754,816
17125,750,813
17130,747,816
17135,749,821
17140,760,818
17145,764,814
17150,774,818
17155,779,814
17160,779,814
17165,791,810
17170,801,819
17175,812,810
17180,813,808
17185,834,814
17190,842,805
17195,849,808
17200,858,808
17205,882,808
17210,891,808
17215,888,804
17220,916,801
17225,924,801
17230,940,795
17235,952,792
17240,974,798
17245,980,793
17250,990,792
17255,1013,789
17260,1033,786
17265,1036,793
17270,1042,778
17275,1067,782
17280,1072,779
17285,1086,781
17290,1097,775
17295,1101,769
17300,1117,770
17305,1132,767
17310,1134,762
17315,1149,764
17320,1156,765
17325,1165,761
17330,1170,752
17335,1170,751
17340,1178,750
17345,1179,754
17350,1174,749
17355,1189,748
17360,1189,748
17365,1189,753
17370,1190,749
17375,1191,746
17380,1188,745
17385,1191,751
17390,1173,752
17395,1182,748
17400,1180,745
17405,1180,748
17410,1180,744
17415,1175,752
17420,1176,750
17425,1167,751
17430,1154,758
17435,1155,751
17440,1150,756
17445,1149,752
17450,1149,757
17455,1146,759
17460,1140,763
17465,1142,767
17470,1132,769
17475,1131,769
17480,1124,777
17485,1120,779
17490,1122,782
17495,1118,781
17500,1106,786
17505,1119,790
17510,1109,794
17515,1109,793
17520,1101,791
17525,1096,802
17530,1103,804
17535,1097,806
17540,1093,809
17545,1097,804
17550,1090,809
17555,1089,812
17560,1087,814
17565,1081,820
17570,1080,825
17575,1077,827
17580,1071,824
17585,1057,824
17590,1071,834
17595,1054,830
17600,1060,826
17605,1052,833
17610,1046,841
17615,1039,840
17620,1034,839
17625,1034,835
17630,1022,839
17635,1020,838
17640,1013,840
17645,995,839
17650,996,841
17655,983,833
17660,978,836
17665,968,841
17670,950,835
17675,947,842
17680,929,831
17685,928,836
17690,921,838
17695,906,831
17700,900,833
17705,884,831
17710,881,834
17715,859,834
17720,855,828
17725,846,828
17730,833,829
17735,817,822
17740,829,828
17745,807,825
17750,803,831
17755,791,827
17760,786,822
17765,776,825
17770,776,827
17775,766,830
17780,765,821
17785,753,820
17790,767,815
17795,744,826
17800,746,822
17805,748,819
17810,745,822
17815,743,821
17820,750,816
17825,756,821
17830,759,820
17835,762,818
17840,764,814
17845,773,816
17850,774,816
17855,783,813
17860,790,811
17865,804,806
17870,813,814
17875,830,813
17880,840,808
17885,854,804
17890,865,808
17895,870,809
17900,873,807
17905,900,806
17910,910,803
17915,924,800
17920,940,801
17925,962,794
17930,969,798
17935,983,796
17940,986,791
17945,1005,789
17950,1021,789
17955,1037,783
17960,1044,787
17965,1059,778
17970,1079,782
17975,1092,774
17980,1096,779
17985,1107,771
17990,1111,768
17995,1134,767
18000,1143,763
18005,1142,765
18010,1154,757
18015,1172,765
18020,1162,758
18025,1177,756
18030,1171,754
18035,1174,756
18040,1186,755
18045,1180,748
18050,1184,744
18055,1193,755
18060,1184,751
18065,1180,749
18070,1194,748
18075,1194,747
18080,1186,745
18085,1182,750
18090,1183,747
18095,1183,746
18100,1171,747
18105,1173,750
18110,1163,752
18115,1173,751
18120,1166,749
18125,1151,756
18130,1157,751
18135,1157,760
18140,1151,759
18145,1148,762
18150,1138,766
18155,1133,760
18160,1135,764
18165,1129,771
18170,1126,771
18175,1117,775
18180,1126,783
18185,1115,783
18190,1108,789
18195,1108,788
18200,1110,791
18205,1105,798
18210,1104,800
18215,1098,802
18220,1094,799
18225,1102,806
18230,1091,816
18235,1098,815
18240,1086,811
18245,1078,813
18250,1082,815
18255,1076,826
18260,1067,826
18265,1076,825
18270,1064,827
18275,1068,830
18280,1064,831
18285,1054,833
18290,1053,834
18295,1050,837
18300,1046,828
18305,1032,832
18310,1031,836
18315,1030,831
18320,1026,838
18325,1021,841
18330,1013,837
18335,992,840
18340,998,838
18345,995,831
18350,981,832
18355,966,835
18360,950,838
18365,949,840
18370,938,832
18375,926,836
18380,920,839
18385,908,831
18390,903,837
18395,886,830
18400,875,836
18405,867,833
18410,855,838
18415,844,826
18420,836,830
18425,825,828
18430,813,831
18435,807,821
18440,813,829
18445,796,826
18450,777,830
18455,774,825
18460,780,824
18465,762,823
18470,764,826
18475,752,819
18480,758,823
18485,747,817
18490,754,813
18495,752,818
18500,745,814
18505,752,816
18510,748,821
18515,755,822
18520,760,814
18525,770,815
18530,768,821
18535,779,823
18540,772,816
18545,785,816
18550,797,814
18555,797,809
18560,818,814
18565,822,818
18570,835,811
18575,840,810
18580,861,807
18585,878,808
18590,881,802
18595,904,808
18600,908,801
18605,920,801
18610,938,800
18615,957,793
18620,963,804
18625,974,797
18630,994,798
18635,1006,789
18640,1026,791
18645,1041,788
18650,1038,787
18655,1060,783
18660,1079,781
18665,1088,775
18670,1086,773
18675,1108,768
18680,1111,766
18685,1125,768
18690,1128,772
18695,1139,767
18700,1146,765
18705,1149,763
18710,1153,759
18715,1163,759
18720,1173,757
18725,1173,757
18730,1173,752
18735,1181,754
18740,1188,749
18745,1186,746
18750,1189,753
18755,1188,748
18760,1193,743
18765,1184,746
18770,1186,746
18775,1182,750
18780,1181,752
18785,1185,748
18790,1166,743
18795,1178,752
18800,1167,750
18805,1174,753
18810,1168,758
18815,1171,753
18820,1154,758
18825,1151,758
18830,1151,759
18835,1147,763
18840,1142,760
18845,1134,771
18850,1128,772
18855,1122,768
18860,1124,773
18865,1130,777
18870,1116,781
18875,1114,783
18880,1114,781
18885,1109,794
18890,1107,795
18895,1113,794
18900,1103,799
18905,1092,798
18910,1099,800
18915,1091,807
18920,1089,808
18925,1088,808
18930,1076,811
18935,1075,816
18940,1081,819
18945,1074,819
18950,1088,824
18955,1066,818
18960,1063,819
18965,1055,829
18970,1066,830
18975,1064,833
18980,1048,838
18985,1046,835
18990,1045,831
18995,1041,837
19000,1042,839
19005,1031,835
19010,1024,838
19015,1017,837
19020,1003,838
19025,1005,839
19030,994,833
19035,985,835
19040,968,837
19045,976,838
19050,960,835
19055,944,839
19060,933,840
19065,930,840
19070,918,831
19075,907,829
19080,908,834
19085,891,834
19090,870,832
19095,871,837
19100,857,825
19105,844,831
19110,845,830
19115,831,824
19120,809,826
19125,811,823
19130,802,828
19135,801,828
19140,784,825
19145,782,825
19150,761,829
19155,764,822
19160,756,822
19165,764,819
19170,750,815
19175,754,822
19180,749,818
19185,748,818
19190,753,823
19195,748,818
19200,756,813
19205,754,819
19210,750,816
19215,755,818
19220,758,823
19225,766,809
19230,767,812
19235,781,818
19240,803,813
19245,793,814
19250,812,816
19255,817,811
19260,838,808
19265,842,814
19270,856,811
19275,866,807
19280,878,809
19285,887,807
19290,911,804
19295,917,807
19300,941,795
19305,954,800
19310,963,791
19315,972,792
19320,986,792
19325,1002,792
19330,1026,788
19335,1034,787
19340,1052,784
19345,1056,785
19350,1069,777
19355,1089,778
19360,1097,776
19365,1103,772
19370,1118,771
19375,1114,768
19380,1133,772
19385,1146,768
19390,1159,761
19395,1159,762
19400,1165,760
19405,1168,756
19410,1171,757
19415,1179,755
19420,1173,756
19425,1177,748
19430,1188,751
19435,1193,750
19440,1187,750
19445,1190,749
19450,1189,742
19455,1194,741
19460,1188,745
19465,1196,748
19470,1182,750
19475,1179,755
19480,1174,753
19485,1177,745
19490,1172,752
19495,1164,743
19500,1159,752
19505,1158,753
19510,1168,752
19515,1157,761
19520,1146,756
19525,1147,760
19530,1141,765
19535,1135,766
19540,1139,765
19545,1141,765
19550,1129,771
19555,1124,778
19560,1128,778
19565,1116,783
19570,1101,788
19575,1118,786
19580,1111,798
19585,1106,794
19590,1102,796
19595,1103,801
19600,1095,794
19605,1095,801
19610,1094,801
19615,1098,806
19620,1092,814
19625,1088,817
19630,1088,815
19635,1082,818
19640,1081,816
19645,1070,830
19650,1076,828
19655,1069,828
19660,1059,825
19665,1057,837
19670,1051,834
19675,1058,831
19680,1045,835
19685,1040,837
19690,1036,838
19695,1038,841
19700,1023,840
19705,1017,838
19710,1014,840
19715,1008,840
19720,994,841
19725,982,839
19730,980,843
19735,966,841
19740,972,841
19745,953,837
19750,938,826
19755,934,838
19760,921,838
19765,908,834
19770,892,831
19775,894,838
19780,882,836
19785,877,834
19790,871,832
19795,845,827
19800,834,833
19805,836,831
19810,823,833
19815,811,827
19820,799,829
19825,793,822
19830,794,819
19835,779,829
19840,774,820
19845,752,825
19850,764,822
19855,756,823
19860,753,819
19865,752,818
19870,747,815
19875,743,820
19880,743,819
19885,750,819
19890,748,827
19895,747,813
19900,748,816
19905,756,817
19910,774,810
19915,763,812
19920,780,810
19925,784,824
19930,799,809
19935,803,817
19940,805,816
19945,817,812
19950,833,812
19955,848,811
19960,851,806
19965,866,805
19970,882,803
19975,890,803
19980,899,801
19985,920,802
19990,938,798
19995,951,803
20000,960,797
20005,972,795
20010,998,787
20015,1010,794
20020,1017,792
20025,1028,789
20030,1050,785
20035,1055,780
20040,1073,786
20045,1085,777
20050,1090,777
20055,1105,772
20060,1112,774
20065,1120,766
20070,1127,766
20075,1143,764
20080,1138,760
20085,1155,763
20090,1164,758
20095,1171,759
20100,1163,761
20105,1179,751
20110,1184,759
20115,1181,749
20120,1189,751
20125,1183,749
20130,1187,755
20135,1191,745
20140,1186,741
20145,1197,747
20150,1191,747
20155,1186,748
20160,1179,747
20165,1178,742
20170,1167,745
20175,1168,751
20180,1166,753
20185,1171,751
20190,1166,752
20195,1160,756
20200,1149,755
20205,1164,761
20210,1147,756
20215,1155,761
20220,1144,765
20225,1138,766
20230,1143,770
20235,1121,770
20240,1129,772
20245,1118,774
20250,1115,780
20255,1115,787
20260,1120,782
20265,1106,783
20270,1101,792
20275,1096,793
20280,1109,796
20285,1105,803
20290,1102,800
20295,1095,800
20300,1098,809
20305,1092,811
20310,1088,816
20315,1087,816
20320,1085,817
20325,1082,817
20330,1084,820
20335,1078,822
20340,1073,825
20345,1080,828
20350,1066,828
20355,1059,835
20360,1056,840
20365,1046,834
20370,1044,830
20375,1033,830
20380,1036,833
20385,1034,838
20390,1025,835
20395,1018,841
20400,994,841
20405,1003,837
20410,1005,839
20415,988,836
20420,973,839
20425,976,839
20430,970,836
20435,942,839
20440,943,839
20445,931,841
20450,918,833
20455,897,839
20460,906,836
20465,902,836
20470,874,830
20475,868,833
20480,856,840
20485,852,837
20490,843,833
20495,832,828
20500,818,832
20505,815,829
20510,809,824
20515,800,827
20520,785,824
20525,779,828
20530,776,825
20535,774,823
20540,767,821
20545,756,820
20550,754,820
20555,752,818
20560,757,823
20565,760,822
20570,749,818
20575,749,821
20580,749,819
20585,745,815
20590,753,816
20595,759,821
20600,765,819
20605,772,817
20610,770,815
20615,777,821
20620,796,814
20625,795,816
20630,808,809
20635,823,810
20640,829,808
20645,845,808
20650,854,814
20655,854,808
20660,875,803
20665,890,803
20670,901,802
20675,916,794
20680,932,797
20685,948,796
20690,959,796
20695,973,797
20700,986,795
20705,1001,793
20710,1018,787
20715,1034,788
20720,1039,788
20725,1054,781
20730,1070,785
20735,1083,778
20740,1080,780
20745,1097,775
20750,1109,767
20755,1120,765
20760,1125,768
20765,1135,767
20770,1147,760
20775,1148,764
20780,1165,759
20785,1163,758
20790,1168,754
20795,1176,751
20800,1187,757
20805,1184,754
20810,1192,747
20815,1183,751
20820,1197,748
20825,1185,746
20830,1186,748
20835,1186,745
20840,1190,749
20845,1191,749
20850,1187,747
20855,1175,752
20860,1180,751
20865,1167,750
20870,1171,749
20875,1173,753
20880,1165,753
20885,1162,752
20890,1163,757
20895,1146,756
20900,1145,763
20905,1160,765
20910,1145,762
20915,1142,766
20920,1132,770
20925,1136,769
20930,1128,772
20935,1124,774
20940,1133,780
20945,1113,785
20950,1115,789
20955,1103,783
20960,1107,787
20965,1112,790
20970,1114,798
20975,1098,794
20980,1101,803
20985,1097,805
20990,1088,809
20995,1094,809
21000,1091,813
21005,1092,813
21010,1088,816
21015,1075,822
21020,1072,820
21025,1070,825
21030,1076,822
21035,1072,818
21040,1065,832
21045,1058,830
21050,1056,830
21055,1048,833
21060,1051,836
21065,1045,831
21070,1042,835
21075,1032,840
21080,1027,838
21085,1023,843
21090,1017,840
21095,1010,841
21100,996,835
21105,990,840
21110,990,836
21115,966,836
21120,967,839
21125,956,838
21130,952,841
21135,931,839
21140,924,835
21145,917,835
21150,901,834
21155,890,837
21160,880,838
21165,878,831
21170,868,833
21175,854,828
21180,844,832
21185,837,833
21190,833,827
21195,812,825
21200,802,829
21205,795,826
21210,796,822
21215,778,820
21220,780,823
21225,770,829
21230,754,823
21235,764,825
21240,760,823
21245,752,825
21250,748,821
21255,747,821
21260,748,829
21265,742,817
21270,750,818
21275,750,824
21280,749,814
21285,741,813
21290,759,814
21295,766,817
21300,780,818
21305,781,814
21310,785,814
21315,800,818
21320,810,808
21325,831,814
21330,822,812
21335,845,808
21340,851,811
21345,860,807
21350,871,799
21355,882,799
21360,903,802
21365,910,798
21370,931,800
21375,952,801
21380,959,801
21385,972,793
21390,993,800
21395,1002,788
21400,1016,789
21405,1035,788
21410,1042,785
21415,1044,781
21420,1068,781
21425,1074,774
21430,1089,776
21435,1103,774
21440,1105,775
21445,1114,772
21450,1131,772
21455,1135,761
21460,1140,762
21465,1157,764
21470,1158,761
21475,1154,756
21480,1180,753
21485,1172,753
21490,1177,754
21495,1181,753
21500,1187,746
21505,1183,750
21510,1183,749
21515,1185,748
21520,1194,748
21525,1189,748
21530,1185,742
21535,1185,756
21540,1189,755
21545,1183,750
21550,1177,746
21555,1177,749
21560,1171,751
21565,1167,750
21570,1174,750
21575,1161,753
21580,1158,754
21585,1153,759
21590,1159,760
21595,1145,757
21600,1151,765
21605,1138,765
21610,1129,763
21615,1133,774
21620,1130,769
21625,1130,773
21630,1127,777
21635,1119,777
21640,1117,786
21645,1115,788
21650,1122,790
21655,1099,793
21660,1101,799
21665,1102,795
21670,1108,796
21675,1106,800
21680,1093,805
21685,1084,808
21690,1095,811
21695,1094,818
21700,1084,815
21705,1081,815
21710,1073,825
21715,1072,822
21720,1071,823
21725,1075,825
21730,1068,827
21735,1068,824
21740,1059,832
21745,1046,831
21750,1055,839
21755,1035,835
21760,1035,832
21765,1023,842
21770,1022,838
21775,1011,839
21780,1011,837
21785,1003,837
21790,1008,840
21795,992,847
21800,984,837
21805,978,834
21810,963,838
21815,947,837
21820,939,834
21825,934,840
21830,923,841
21835,908,832
21840,909,838
21845,896,839
21850,881,829
21855,875,831
21860,862,832
21865,849,829
21870,845,829
21875,832,824
21880,827,828
21885,828,830
21890,804,825
21895,790,824
21900,796,824
21905,786,828
21910,772,827
21915,769,820
21920,756,825
21925,756,823
21930,756,822
21935,763,823
21940,749,821
21945,747,824
21950,751,823
21955,751,819
21960,743,817
21965,748,813
21970,755,821
21975,758,817
21980,768,815
21985,756,816
21990,772,813
21995,786,812
22000,789,813
22005,798,809
22010,811,808
22015,811,812
22020,829,814
22025,831,810
22030,844,808
22035,871,809
22040,860,809
22045,897,801
22050,906,801
22055,921,808
22060,928,799
22065,949,799
22070,950,796
22075,972,789
22080,990,793
22085,992,792
22090,1020,788
22095,1031,788
22100,1046,783
22105,1052,784
22110,1067,782
22115,1072,783
22120,1088,779
22125,1101,775
22130,1103,773
22135,1123,768
22140,1117,771
22145,1134,763
22150,1136,768
22155,1157,760
22160,1152,760
22165,1164,757
22170,1168,756
22175,1177,755
22180,1174,750
22185,1176,753
22190,1194,756
22195,1184,748
22200,1185,748
22205,1192,751
22210,1189,749
22215,1188,747
22220,1184,750
22225,1190,741
22230,1187,744
22235,1181,746
22240,1178,748
22245,1169,744
22250,1180,749
22255,1172,754
22260,1160,753
22265,1163,754
22270,1160,753
22275,1155,755
22280,1148,761
22285,1145,758
22290,1144,764
22295,1137,766
22300,1144,765
22305,1136,766
22310,1128,773
22315,1130,777
22320,1123,780
22325,1125,774
22330,1112,777
22335,1111,786
22340,1110,783
22345,1111,789
22350,1099,797
22355,1108,793
22360,1099,798
22365,1110,804
22370,1095,805
22375,1094,810
22380,1087,813
22385,1082,818
22390,1082,818
22395,1086,820
22400,1088,822
22405,1075,818
22410,1077,828
22415,1071,830
22420,1061,831
22425,1061,830
22430,1061,832
22435,1053,828
22440,1052,832
22445,1045,839
22450,1042,837
22455,1026,834
22460,1029,839
22465,1021,834
22470,1019,841
22475,1013,840
22480,1000,838
22485,999,843
22490,987,835
22495,971,837
22500,967,842
22505,958,836
22510,941,833
22515,935,834
22520,925,835
22525,912,837
22530,905,831
22535,900,835
22540,884,832
22545,874,827
22550,870,833
22555,856,832
22560,843,830
22565,834,834
22570,817,828
22575,814,830
22580,811,828
22585,802,830
22590,790,817
22595,776,827
22600,776,820
22605,766,822
22610,759,821
22615,759,825
22620,757,825
22625,752,820
22630,758,820
22635,747,823
22640,749,819
22645,749,815
22650,754,817
22655,755,818
22660,738,815
22665,749,818
22670,759,812
22675,769,815
22680,770,815
22685,781,811
22690,781,817
22695,796,812
22700,807,808
22705,813,812
22710,821,811
22715,836,811
22720,854,807
22725,859,810
22730,872,806
22735,880,809
22740,903,808
22745,918,803
22750,922,801
22755,938,793
22760,955,799
22765,963,795
22770,989,797
22775,994,786
22780,1010,790
22785,1030,785
22790,1030,782
22795,1045,779
22800,1067,784
22805,1084,780
22810,1089,777
22815,1092,780
22820,1107,771
22825,1123,774
22830,1130,770
22835,1134,768
22840,1155,763
22845,1156,765
22850,1154,763
22855,1158,764
22860,1171,757
22865,1176,755
22870,1178,752
22875,1174,748
22880,1173,756
22885,1182,749
22890,1187,745
22895,1192,748
22900,1192,751
22905,1189,750
22910,1193,746
22915,1189,749
22920,1188,744
22925,1191,747
22930,1186,747
22935,1167,752
22940,1176,749
22945,1171,751
22950,1172,754
22955,1164,756
22960,1163,750
22965,1151,760
22970,1167,760
22975,1139,758
22980,1138,762
22985,1139,760
22990,1154,767
22995,1131,766
23000,1125,773
23005,1123,775
23010,1124,778
23015,1115,778
23020,1107,786
23025,1104,783
23030,1117,790
23035,1104,792
23040,1109,788
23045,1100,794
23050,1100,802
23055,1100,804
23060,1106,805
23065,1094,806
23070,1090,811
23075,1086,816
23080,1086,819
23085,1082,822
23090,1078,823
23095,1070,821
23100,1074,823
23105,1073,823
23110,1067,826
23115,1063,829
23120,1058,828
23125,1058,835
23130,1056,832
23135,1049,834
23140,1041,834
23145,1035,840
23150,1021,839
23155,1020,842
23160,1013,835
23165,1013,840
23170,996,836
23175,1001,836
23180,992,842
23185,975,840
23190,963,841
23195,952,838
23200,953,838
23205,941,837
23210,928,835
23215,916,836
23220,910,839
23225,892,832
23230,893,837
23235,871,833
23240,869,833
23245,859,836
23250,843,833
23255,832,823
23260,824,834
23265,813,827
23270,816,829
23275,797,828
23280,798,828
23285,793,833
23290,781,818
23295,774,819
23300,764,822
23305,763,818
23310,764,822
23315,752,824
23320,750,823
23325,745,826
23330,745,816
23335,755,812
23340,751,813
23345,752,816
23350,755,818
23355,763,820
23360,760,814
23365,765,815
23370,771,816
23375,783,813
23380,780,810
23385,794,819
23390,806,812
23395,813,811
23400,820,811
23405,843,803
23410,850,806
23415,859,810
23420,874,802
23425,890,807
23430,894,803
23435,905,803
23440,928,803
23445,933,798
23450,954,795
23455,966,793
23460,980,789
23465,995,798
23470,1009,793
23475,1023,787
23480,1037,782
23485,1058,786
23490,1062,785
23495,1066,780
23500,1090,778
23505,1092,781
23510,1108,777
23515,1114,774
23520,1120,766
23525,1138,771
23530,1137,769
23535,1154,765
23540,1154,762
23545,1164,762
23550,1172,762
23555,1167,757
23560,1172,754
23565,1179,751
23570,1178,750
23575,1176,751
23580,1188,752
23585,1176,748
23590,1190,745
23595,1195,750
23600,1194,748
23605,1191,746
23610,1184,746
23615,1184,745
23620,1181,745
23625,1176,745
23630,1173,752
23635,1176,757
23640,1168,751
23645,1165,754
23650,1168,754
23655,1167,762
23660,1154,754
23665,1142,757
23670,1135,763
23675,1140,762
23680,1141,761
23685,1137,765
23690,1131,771
23695,1125,776
23700,1122,774
23705,1114,777
23710,1118,786
23715,1107,786
23720,1107,786
23725,1108,782
23730,1106,788
23735,1097,796
23740,1101,803
23745,1105,805
23750,1090,806
23755,1087,810
23760,1088,814
23765,1083,812
23770,1081,820
23775,1083,816
23780,1079,819
23785,1076,821
23790,1076,830
23795,1073,822
23800,1066,825
23805,1058,827
23810,1065,826
23815,1056,831
23820,1046,835
23825,1044,838
23830,1043,838
23835,1027,830
23840,1033,839
23845,1018,834
23850,1014,837
23855,1010,843
23860,1001,843
23865,993,836
23870,989,841
23875,977,841
23880,968,839
23885,956,838
23890,953,836
23895,943,837
23900,930,837
23905,917,834
23910,908,837
23915,904,835
23920,884,837
23925,882,831
23930,876,832
23935,854,830
23940,848,831
23945,832,829
23950,826,830
23955,817,829
23960,808,825
23965,799,825
23970,787,826
23975,788,826
23980,773,823
23985,770,818
23990,777,818
23995,757,821
24000,751,824
24005,750,824
24010,753,824
24015,744,820
24020,752,823
24025,750,818
24030,743,817
24035,752,819
24040,753,816
24045,768,813
24050,756,816
24055,771,821
24060,772,814
24065,766,817
24070,778,809
24075,796,813
24080,797,819
24085,814,812
24090,818,807
24095,831,809
24100,846,808
24105,850,811
24110,877,806
24115,876,808
24120,890,795
24125,908,799
24130,924,796
24135,935,799
24140,950,792
24145,964,797
24150,991,794
24155,985,790
24160,1010,791
24165,1024,792
24170,1032,783
24175,1043,783
24180,1049,788
24185,1070,778
24190,1084,775
24195,1097,780
24200,1102,779
24205,1115,774
24210,1133,771
24215,1130,770
24220,1141,768
24225,1144,770
24230,1154,764
24235,1171,761
24240,1158,756
24245,1174,759
24250,1174,754
24255,1170,754
24260,1178,750
24265,1182,748
24270,1190,749
24275,1182,743
24280,1183,749
24285,1190,748
24290,1184,744
24295,1192,745
24300,1181,747
24305,1177,747
24310,1190,747
24315,1175,747
24320,1172,744
24325,1181,752
24330,1173,753
24335,1165,755
24340,1159,745
24345,1152,758
24350,1154,760
24355,1145,752
24360,1141,759
24365,1147,760
24370,1136,770
24375,1127,769
24380,1131,770
24385,1122,777
24390,1122,774
24395,1120,776
24400,1117,785
24405,1119,785
24410,1115,791
24415,1109,794
24420,1107,795
24425,1103,798
24430,1105,797
24435,1098,801
24440,1095,802
24445,1101,807
24450,1098,807
24455,1085,816
24460,1085,810
24465,1078,818
24470,1082,825
24475,1082,823
24480,1074,825
24485,1067,830
24490,1067,829
24495,1060,830
24500,1062,834
24505,1064,830
24510,1050,837
24515,1047,832
24520,1041,832
24525,1040,838
24530,1020,838
24535,1024,839
24540,1023,845
24545,1011,842
24550,996,838
24555,996,837
24560,989,835
24565,973,841
24570,975,837
24575,956,841
24580,949,847
24585,946,837
24590,938,837
24595,925,841
24600,917,834
24605,897,837
24610,897,829
24615,883,830
24620,879,836
24625,862,832
24630,842,825
24635,844,824
24640,825,828
24645,835,834
24650,811,825
24655,797,824
24660,801,829
24665,792,826
24670,770,828
24675,768,825
24680,765,822
24685,762,826
24690,762,823
24695,769,823
24700,751,821
24705,743,827
24710,751,819
24715,744,824
24720,753,817
24725,751,812
24730,755,817
24735,760,815
24740,768,815
24745,756,818
24750,770,812
24755,784,810
24760,779,817
24765,791,813
24770,812,815
24775,808,810
24780,817,806
24785,838,804
24790,841,814
24795,860,809
24800,873,806
24805,876,804
24810,897,802
24815,911,804
24820,919,798
24825,934,800
24830,943,802
24835,956,802
24840,971,794
24845,990,794
24850,1004,793
24855,1014,790
24860,1035,787
24865,1037,785
24870,1055,781
24875,1067,777
24880,1080,783
24885,1091,774
24890,1102,775
24895,1115,773
24900,1131,771
24905,1133,762
24910,1139,766
24915,1156,766
24920,1147,764
24925,1160,766
24930,1169,757
24935,1175,758
24940,1181,757
24945,1172,752
24950,1181,753
24955,1192,753
24960,1185,751
24965,1189,750
24970,1194,749
24975,1186,749
24980,1180,746
24985,1185,747
24990,1190,742
24995,1182,750
25000,1176,748
25005,1176,752
25010,1170,750
25015,1172,747
25020,1172,749
25025,1163,750
25030,1161,752
25035,1159,756
25040,1160,760
25045,1154,757
25050,1144,759
25055,1149,771
25060,1140,764
25065,1135,767
25070,1141,777
25075,1132,773
25080,1119,770
25085,1129,775
25090,1122,782
25095,1121,792
25100,1120,781
25105,1113,788
25110,1102,796
25115,1102,797
25120,1099,799
25125,1097,798
25130,1098,803
25135,1103,811
25140,1086,814
25145,1090,810
25150,1096,816
25155,1083,815
25160,1078,816
25165,1072,818
25170,1079,823
25175,1075,828
25180,1070,831
25185,1066,826
25190,1066,831
25195,1060,829
25200,1049,835
25205,1038,835
25210,1034,833
25215,1038,838
25220,1027,833
25225,1019,838
25230,1016,836
25235,1017,840
25240,1002,840
25245,991,841
25250,980,840
25255,982,838
25260,966,845
25265,965,837
25270,950,836
25275,941,831
25280,936,834
25285,930,834
25290,903,836
25295,908,831
25300,893,835
25305,884,837
25310,871,829
25315,860,830
25320,861,828
25325,838,828
25330,830,830
25335,825,830
25340,815,826
25345,799,825
25350,807,827
25355,788,826
25360,773,821
25365,765,823
25370,771,824
25375,774,820
25380,758,826
25385,757,822
25390,759,818
25395,746,824
25400,743,820
25405,744,821
25410,754,820
25415,743,814
25420,756,820
25425,753,818
25430,764,813
25435,768,815
25440,765,817
25445,769,814
25450,782,815
25455,803,813
25460,799,812
25465,807,813
25470,816,811
25475,827,810
25480,841,813
25485,850,814
25490,864,809
25495,873,807
25500,901,806
25505,910,803
25510,924,800
25515,941,802
25520,949,795
25525,971,797
25530,973,796
25535,984,790
25540,996,791
25545,1020,791
25550,1034,788
25555,1052,788
25560,1050,777
25565,1061,786
25570,1072,779
25575,1087,777
25580,1105,780
25585,1112,773
25590,1121,768
25595,1128,772
25600,1143,767
25605,1141,765
25610,1158,761
25615,1159,764
25620,1163,758
25625,1173,761
25630,1179,761
25635,1175,750
25640,1167,753
25645,1189,759
25650,1181,746
25655,1189,748
25660,1197,749
25665,1188,751
25670,1179,746
25675,1188,748
25680,1187,743
25685,1182,750
25690,1187,744
25695,1180,753
25700,1184,756
25705,1174,746
25710,1162,755
25715,1164,752
25720,1153,757
25725,1159,754
25730,1148,757
25735,1144,761
25740,1153,760
25745,1144,763
25750,1137,765
25755,1134,767
25760,1126,767
25765,1131,767
25770,1135,768
25775,1109,780
25780,1122,780
25785,1111,786
25790,1113,788
25795,1116,790
25800,1104,796
25805,1104,796
25810,1098,798
25815,1102,800
25820,1091,804
25825,1091,811
25830,1086,814
25835,1093,811
25840,1083,814
25845,1077,818
25850,1076,817
25855,1082,823
25860,1075,819
25865,1076,832
25870,1067,829
25875,1068,830
25880,1056,827
25885,1062,830
25890,1051,831
25895,1051,832
25900,1034,835
25905,1037,834
25910,1029,837
25915,1026,838
25920,1020,837
25925,1020,840
25930,1005,839
25935,1001,835
25940,983,842
25945,982,840
25950,968,836
25955,967,842
25960,945,843
25965,948,833
25970,936,838
25975,920,839
25980,915,839
25985,907,839
25990,899,839
25995,881,832
26000,875,826
26005,859,835
26010,849,829
26015,847,833
26020,830,828
26025,817,829
26030,813,831
26035,801,830
26040,793,827
26045,786,827
26050,779,822
26055,777,826
26060,776,821
26065,772,823
26070,753,823
26075,759,821
26080,747,826
26085,752,820
26090,747,819
26095,754,819
26100,744,820
26105,752,822
26110,752,814
26115,755,817
26120,755,819
26125,756,815
26130,771,810
26135,772,817
26140,782,816
26145,782,811
26150,796,813
26155,813,814
26160,824,811
26165,824,811
26170,836,814
26175,851,810
26180,869,806
26185,887,805
26190,895,809
26195,901,797
26200,910,802
26205,932,802
26210,954,797
26215,966,796
26220,969,798
26225,980,797
26230,1004,798
26235,1013,790
26240,1024,785
26245,1041,787
26250,1061,781
26255,1070,784
26260,1080,779
26265,1090,778
26270,1100,774
26275,1115,771
26280,1126,769
26285,1134,770
26290,1137,764
26295,1149,761
26300,1154,761
26305,1154,763
26310,1159,758
26315,1172,756
26320,1184,753
26325,1177,756
26330,1174,753
26335,1193,756
26340,1190,756
26345,1182,746
26350,1192,754
26355,1189,744
26360,1187,744
26365,1188,746
26370,1180,749
26375,1175,744
26380,1184,744
26385,1175,751
26390,1178,753
26395,1161,751
26400,1173,750
26405,1171,751
26410,1160,755
26415,1164,758
26420,1156,752
26425,1149,765
26430,1148,758
26435,1140,767
26440,1138,767
26445,1134,765
26450,1133,763
26455,1135,771
26460,1130,779
26465,1125,781
26470,1117,782
26475,1107,783
26480,1121,790
26485,1111,791
26490,1099,793
26495,1101,792
26500,1096,801
26505,1098,803
26510,1091,804
26515,1087,809
26520,1090,807
26525,1083,811
26530,1077,811
26535,1092,818
26540,1080,821
26545,1076,820
26550,1075,820
26555,1071,819
26560,1066,826
26565,1066,828
26570,1059,826
26575,1052,825
26580,1053,827
26585,1051,833
26590,1049,833
26595,1039,838
26600,1030,836
26605,1022,836
26610,1026,843
26615,1010,836
26620,1002,836
26625,1000,841
26630,982,841
26635,978,840
26640,967,838
26645,968,840
26650,953,842
26655,939,840
26660,942,838
26665,931,832
26670,909,838
26675,903,832
26680,895,836
26685,888,834
26690,875,836
26695,871,828
26700,843,835
26705,843,830
26710,833,827
26715,832,827
26720,813,820
26725,798,827
26730,793,821
26735,791,821
26740,784,819
26745,774,827
26750,765,823
26755,771,825
26760,758,821
26765,750,825
26770,764,816
26775,751,820
26780,740,820
26785,746,819
26790,755,821
26795,752,821
26800,748,816
26805,753,819
26810,751,822
26815,756,811
26820,773,821
26825,770,814
26830,787,817
26835,789,818
26840,810,810
26845,802,808
26850,823,817
26855,835,811
26860,840,809
26865,849,809
26870,858,813
26875,874,808
26880,891,810
26885,893,800
26890,911,802
26895,933,806
26900,949,799
26905,966,800
26910,980,792
26915,983,794
26920,1003,793
26925,1019,792
26930,1022,782
26935,1037,790
26940,1053,785
26945,1066,786
26950,1071,778
26955,1095,780
26960,1103,770
26965,1104,770
26970,1121,764
26975,1123,772
26980,1139,767
26985,1142,764
26990,1157,763
26995,1163,761
27000,1162,757
27005,1167,760
27010,1171,761
27015,1183,748
27020,1185,755
27025,1174,748
27030,1184,750
27035,1190,752
27040,1173,748
27045,1190,747
27050,1189,749
27055,1192,751
27060,1189,748
27065,1180,746
27070,1188,747
27075,1182,752
27080,1183,744
27085,1176,753
27090,1168,751
27095,1168,749
27100,1167,752
27105,1158,751
27110,1148,756
27115,1149,765
27120,1141,761
27125,1143,761
27130,1139,765
27135,1131,768
27140,1132,766
27145,1130,775
27150,1124,777
27155,1120,774
27160,1114,777
27165,1111,780
27170,1110,787
27175,1111,787
27180,1109,796
27185,1101,795
27190,1106,797
27195,1105,799
27200,1101,806
27205,1092,807
27210,1097,812
27215,1081,808
27220,1090,813
27225,1086,817
27230,1086,815
27235,1074,821
27240,1071,817
27245,1080,825
27250,1067,829
27255,1066,828
27260,1063,828
27265,1051,830
27270,1052,836
27275,1050,833
27280,1053,834
27285,1040,837
27290,1029,840
27295,1027,839
27300,1027,838
27305,1009,836
27310,1011,836
27315,996,839
27320,986,838
27325,969,839
27330,971,842
27335,963,839
27340,960,839
27345,951,840
27350,923,839
27355,921,835
27360,918,835
27365,909,838
27370,904,832
27375,878,834
27380,882,841
27385,854,833
27390,849,835
27395,851,833
27400,835,829
27405,825,822
27410,818,826
27415,813,819
27420,789,820
27425,789,828
27430,780,830
27435,767,823
27440,772,825
27445,758,822
27450,759,822
27455,758,818
27460,752,819
27465,746,816
27470,747,819
27475,749,824
27480,750,823
27485,747,823
27490,742,821
27495,747,820
27500,749,813
27505,769,821
27510,761,815
27515,771,816
27520,784,815
27525,792,816
27530,803,813
27535,804,813
27540,817,814
27545,830,817
27550,843,813
27555,845,809
27560,861,810
27565,869,804
27570,886,804
27575,895,807
27580,909,802
27585,920,799
27590,940,803
27595,959,796
27600,967,795
27605,990,796
27610,1003,791
27615,1014,794
27620,1024,789
27625,1038,788
27630,1051,784
27635,1058,779
27640,1073,779
27645,1097,780
27650,1099,774
27655,1103,772
27660,1113,774
27665,1124,769
27670,1133,765
27675,1135,763
27680,1150,766
27685,1169,762
27690,1162,762
27695,1158,757
27700,1170,754
27705,1183,751
27710,1186,752
27715,1180,749
27720,1182,754
27725,1188,748
27730,1191,747
27735,1194,748
27740,1186,752
27745,1188,746
27750,1188,749
27755,1185,744
27760,1186,741
27765,1173,748
27770,1173,746
27775,1167,750
27780,1174,747
27785,1168,752
27790,1168,756
27795,1157,748
27800,1155,750
27805,1145,762
27810,1149,758
27815,1146,764
27820,1137,766
27825,1135,767
27830,1122,768
27835,1132,768
27840,1125,776
27845,1122,777
27850,1115,785
27855,1121,775
27860,1103,787
27865,1109,790
27870,1107,795
27875,1101,796
27880,1096,796
27885,1106,797
27890,1106,807
27895,1098,802
27900,1096,808
27905,1095,817
27910,1085,813
27915,1080,822
27920,1085,813
27925,1073,818
27930,1075,824
27935,1068,825
27940,1077,825
27945,1065,829
27950,1058,831
27955,1060,832
27960,1048,830
27965,1046,834
27970,1048,833
27975,1038,836
27980,1034,841
27985,1030,836
27990,1009,831
27995,1014,836
28000,1020,833
28005,993,839
28010,996,836
28015,988,837
28020,980,839
28025,961,839
28030,956,837
28035,943,838
28040,936,837
28045,925,835
28050,918,833
28055,908,834
28060,901,833
28065,876,834
28070,871,838
28075,862,834
28080,853,825
28085,840,831
28090,834,825
28095,824,832
28100,822,829
28105,808,829
28110,803,823
28115,795,828
28120,783,829
28125,784,825
28130,777,824
28135,764,826
28140,760,822
28145,762,822
28150,755,817
28155,750,815
28160,758,820
28165,760,818
28170,756,821
28175,746,822
28180,749,823
28185,745,816
28190,758,815
28195,764,813
28200,769,815
28205,776,812
28210,777,815
28215,792,811
28220,794,815
28225,808,810
28230,815,817
28235,826,809
28240,834,812
28245,840,810
28250,856,803
28255,875,808
28260,881,801
28265,902,808
28270,909,799
28275,926,801
28280,946,795
28285,959,800
28290,973,794
28295,974,793
28300,989,792
28305,1006,788
28310,1019,783
28315,1036,789
28320,1051,784
28325,1050,779
28330,1068,776
28335,1088,780
28340,1092,777
28345,1120,775
28350,1113,767
28355,1114,771
28360,1134,767
28365,1142,764
28370,1158,759
28375,1156,765
28380,1168,758
28385,1169,758
28390,1175,753
28395,1174,753
28400,1179,749
28405,1181,751
28410,1189,750
28415,1182,746
28420,1188,743
28425,1193,753
28430,1184,751
28435,1197,750
28440,1183,740
28445,1177,747
28450,1186,748
28455,1177,746
28460,1173,746
28465,1172,749
28470,1175,747
28475,1171,756
28480,1163,748
28485,1163,757
28490,1156,752
28495,1153,759
28500,1145,750
28505,1158,767
28510,1145,763
28515,1143,770
28520,1132,766
28525,1136,771
28530,1123,775
28535,1118,777
28540,1118,786
28545,1123,782
28550,1118,784
28555,1096,784
28560,1108,798
28565,1108,789
28570,1100,797
28575,1104,802
28580,1103,803
28585,1095,808
28590,1089,809
28595,1088,814
28600,1084,814
28605,1079,820
28610,1088,822
28615,1085,823
28620,1065,820
28625,1072,820
28630,1064,822
28635,1070,827
28640,1067,826
28645,1060,834
28650,1052,830
28655,1048,833
28660,1045,838
28665,1041,836
28670,1035,835
28675,1034,833
28680,1033,841
28685,1016,838
28690,1013,836
28695,997,838
28700,990,837
28705,990,839
28710,973,842
28715,965,838
28720,958,834
28725,946,844
28730,944,845
28735,921,834
28740,922,838
28745,902,836
28750,897,836
28755,894,832
28760,878,837
28765,862,833
28770,853,834
28775,850,833
28780,844,829
28785,831,832
28790,820,833
28795,804,828
28800,797,819
28805,792,827
28810,788,822
28815,780,821
28820,784,824
28825,764,819
28830,760,820
28835,762,824
28840,750,820
28845,752,817
28850,751,825
28855,753,819
28860,746,816
28865,743,825
28870,752,817
28875,755,819
28880,756,816
28885,766,818
28890,760,819
28895,779,816
28900,781,810
28905,782,814
28910,787,817
28915,796,806
28920,816,812
28925,821,802
28930,834,815
28935,841,807
28940,861,814
28945,870,803
28950,882,811
28955,895,802
28960,910,803
28965,926,805
28970,938,799
28975,959,803
28980,965,790
28985,982,797
28990,995,794
28995,998,790
29000,1022,786
29005,1037,780
29010,1047,788
29015,1065,783
29020,1073,782
29025,1089,783
29030,1090,770
29035,1111,776
29040,1125,772
29045,1128,773
29050,1133,766
29055,1149,768
29060,1158,767
29065,1160,767
29070,1164,754
29075,1171,756
29080,1173,755
29085,1182,752
29090,1176,753
29095,1186,749
29100,1188,754
29105,1196,750
29110,1184,755
29115,1185,750
29120,1188,745
29125,1189,746
29130,1184,750
29135,1180,750
29140,1183,741
29145,1179,750
29150,1177,754
29155,1172,746
29160,1171,747
29165,1167,753
29170,1164,757
29175,1173,754
29180,1160,752
29185,1151,762
29190,1160,760
29195,1140,765
29200,1145,762
29205,1138,762
29210,1127,768
29215,1127,774
29220,1137,769
29225,1124,779
29230,1120,778
29235,1111,781
29240,1099,787
29245,1100,788
29250,1107,792
29255,1100,792
29260,1099,793
29265,1101,802
29270,1099,805
29275,1095,805
29280,1097,808
29285,1087,810
29290,1091,817
29295,1089,817
29300,1086,814
29305,1078,823
29310,1077,820
29315,1077,825
29320,1068,828
29325,1070,829
29330,1062,831
29335,1060,831
29340,1059,831
29345,1064,840
29350,1052,835
29355,1034,838
29360,1035,838
29365,1032,832
29370,1034,840
29375,1020,838
29380,1007,837
29385,996,845
29390,994,833
29395,976,838
29400,978,838
29405,973,841
29410,967,837
29415,950,838
29420,935,841
29425,933,839
29430,917,837
29435,910,839
29440,906,839
29445,893,831
29450,870,828
29455,864,830
29460,860,826
29465,841,834
29470,832,830
29475,834,829
29480,816,832
29485,819,826
29490,791,823
29495,790,826
29500,794,823
29505,776,824
29510,764,827
29515,766,815
29520,756,820
29525,763,824
29530,752,814
29535,751,823
29540,745,822
29545,749,820
29550,749,821
29555,746,821
29560,748,820
29565,748,819
29570,748,809
29575,764,815
29580,762,816
29585,771,817
29590,777,813
29595,779,815
29600,792,816
29605,803,810
29610,813,812
29615,817,806
29620,826,807
29625,850,804
29630,858,808
29635,876,804
29640,887,804
29645,892,801
29650,896,804
29655,918,800
29660,930,797
29665,949,801
29670,969,796
29675,976,796
29680,991,791
29685,1006,793
29690,1028,786
29695,1025,785
29700,1040,781
29705,1061,787
29710,1070,778
29715,1086,777
29720,1096,776
29725,1105,773
29730,1118,776
29735,1123,767
29740,1123,774
29745,1145,768
29750,1145,761
29755,1153,759
29760,1161,761
29765,1162,759
29770,1170,755
29775,1182,756
29780,1179,752
29785,1184,749
29790,1176,746
29795,1188,750
29800,1178,751
29805,1187,750
29810,1175,744
29815,1187,748
29820,1185,751
29825,1185,743
29830,1181,751
29835,1184,745
29840,1178,749
29845,1178,748
29850,1175,757
29855,1167,742
29860,1171,752
29865,1158,753
29870,1154,755
29875,1148,761
29880,1154,759
29885,1144,759
29890,1143,770
29895,1137,762
29900,1138,772
29905,1130,770
29910,1126,773
29915,1119,777
29920,1117,784
29925,1119,777
29930,1113,782
29935,1114,785
29940,1103,793
29945,1105,792
29950,1101,791
29955,1103,799
29960,1095,797
29965,1081,804
29970,1100,806
29975,1096,812
29980,1080,810
29985,1089,822
29990,1084,814
29995,1077,817
30000,1081,820
30005,1058,826
30010,1062,826
30015,1069,827
30020,1059,826
30025,1054,834
30030,1050,832
30035,1055,837
30040,1047,834
30045,1048,837
30050,1040,842
30055,1023,832
30060,1017,836
30065,1013,834
30070,1000,839
30075,1006,839
30080,995,841
30085,981,839
30090,981,835
30095,971,837
30100,969,837
30105,958,838
30110,940,837
30115,929,837
30120,929,835
30125,909,839
30130,902,837
30135,891,834
30140,873,834
30145,866,829
30150,852,834
30155,846,837
30160,842,829
30165,836,834
30170,818,823
30175,812,827
30180,800,829
30185,795,825
30190,788,829
30195,778,825
30200,773,825
30205,765,823
30210,756,826
30215,757,819
30220,751,820
30225,749,820
30230,748,821
30235,746,822
30240,748,820
30245,745,821
30250,752,814
30255,757,820
30260,761,816
30265,758,820
30270,775,812
30275,771,820
30280,772,817
30285,779,811
30290,798,813
30295,804,816
30300,811,812
30305,827,811
30310,833,812
30315,837,816
30320,862,808
30325,871,803
30330,875,808
30335,891,802
30340,898,800
30345,918,800
30350,935,798
30355,952,798
30360,965,798
30365,974,791
30370,995,790
30375,1003,791
30380,1019,792
30385,1039,789
30390,1054,789
30395,1065,785
30400,1068,779
30405,1078,779
30410,1098,777
30415,1108,775
30420,1115,775
30425,1123,771
30430,1132,771
30435,1139,765
30440,1148,762
30445,1162,763
30450,1161,758
30455,1169,756
30460,1169,751
30465,1172,753
30470,1179,756
30475,1183,750
30480,1186,752
30485,1187,744
30490,1190,746
30495,1183,747
30500,1190,752
30505,1180,744
30510,1179,748
30515,1185,746
30520,1183,746
30525,1181,749
30530,1181,744
30535,1186,745
30540,1165,748
30545,1165,753
30550,1165,751
30555,1165,750
30560,1155,759
30565,1159,754
30570,1153,761
30575,1144,763
30580,1143,759
30585,1137,768
30590,1136,772
30595,1137,772
30600,1127,777
30605,1117,771
30610,1115,780
30615,1121,779
30620,1117,789
30625,1107,784
30630,1115,783
30635,1107,788
30640,1094,794
30645,1107,802
30650,1104,793
30655,1090,806
30660,1085,806
30665,1092,808
30670,1087,816
30675,1084,817
30680,1091,818
30685,1090,823
30690,1070,819
30695,1073,823
30700,1074,823
30705,1064,832
30710,1061,825
30715,1060,834
30720,1063,833
30725,1056,832
30730,1044,830
30735,1041,831
30740,1037,835
30745,1028,840
30750,1021,837
30755,1018,835
30760,1013,841
30765,1002,838
30770,999,838
30775,991,838
30780,978,843
30785,970,846
30790,968,836
30795,958,835
30800,939,835
30805,928,833
30810,926,831
30815,914,840
30820,904,836
30825,888,834
30830,884,831
30835,869,831
30840,865,829
30845,845,830
30850,845,831
30855,838,830
30860,813,829
30865,811,835
30870,806,826
30875,796,825
30880,784,828
30885,789,828
30890,780,827
30895,768,827
30900,769,821
30905,766,823
30910,756,821
30915,752,821
30920,753,817
30925,754,820
30930,750,820
30935,760,818
30940,750,818
30945,746,817
30950,759,821
30955,758,812
30960,769,813
30965,771,817
30970,768,818
30975,795,812
30980,796,812
30985,800,816
30990,805,812
30995,825,816
31000,828,814
31005,839,810
31010,853,809
31015,862,810
31020,883,801
31025,884,809
31030,893,800
31035,927,805
31040,929,803
31045,939,802
31050,967,799
31055,981,799
31060,985,794
31065,1009,795
31070,1025,791
31075,1029,788
31080,1048,787
31085,1050,785
31090,1074,785
31095,1082,776
31100,1095,774
31105,1096,774
31110,1115,771
31115,1127,777
31120,1134,770
31125,1141,763
31130,1154,765
31135,1162,764
31140,1154,758
31145,1166,760
31150,1169,755
31155,1175,757
31160,1183,752
31165,1179,756
31170,1184,753
31175,1182,751
31180,1184,750
31185,1188,746
31190,1176,748
31195,1178,748
31200,1185,748
31205,1187,741
31210,1180,749
31215,1178,743
31220,1177,750
31225,1173,745
31230,1174,752
31235,1178,752
31240,1166,755
31245,1157,752
31250,1152,755
31255,1143,757
31260,1150,755
31265,1144,759
31270,1140,763
31275,1142,757
31280,1139,768
31285,1132,770
31290,1130,772
31295,1121,775
31300,1126,774
31305,1114,788
31310,1118,785
31315,1107,788
31320,1112,786
31325,1098,787
31330,1100,789
31335,1098,797
31340,1097,799
31345,1090,802
31350,1098,808
31355,1093,813
31360,1083,811
31365,1087,816
31370,1083,818
31375,1088,819
31380,1087,821
31385,1069,826
31390,1077,826
31395,1069,821
31400,1060,831
31405,1054,828
31410,1062,830
31415,1054,834
31420,1055,829
31425,1048,837
31430,1035,835
31435,1019,837
31440,1015,838
31445,1013,837
31450,1008,840
31455,1008,842
31460,1004,838
31465,995,842
31470,972,838
31475,966,833
31480,954,836
31485,951,837
31490,947,837
31495,927,835
31500,920,838
31505,912,835
31510,907,833
31515,891,832
31520,887,833
31525,868,833
31530,867,825
31535,852,828
31540,847,827
31545,840,832
31550,824,825
31555,806,827
31560,802,828
31565,798,824
31570,792,820
31575,784,819
31580,770,822
31585,771,823
31590,767,824
31595,755,822
31600,749,823
31605,760,817
31610,736,825
31615,749,821
31620,750,821
31625,755,820
31630,748,818
31635,751,817
31640,748,817
31645,761,815
31650,762,816
31655,769,813
31660,774,814
31665,785,810
31670,792,808
31675,796,812
31680,803,815
31685,817,813
31690,825,807
31695,837,811
31700,853,813
31705,866,805
31710,876,809
31715,887,804
31720,902,799
31725,908,800
31730,928,797
31735,944,800
31740,960,792
31745,974,796
31750,983,794
31755,1000,793
31760,1021,789
31765,1032,784
31770,1032,791
31775,1049,785
31780,1071,787
31785,1084,776
31790,1098,781
31795,1101,775
31800,1115,776
31805,1116,772
31810,1126,763
31815,1145,768
31820,1151,764
31825,1154,761
31830,1152,762
31835,1169,758
31840,1157,753
31845,1176,753
31850,1177,753
31855,1180,758
31860,1189,753
31865,1183,751
31870,1184,746
31875,1184,744
31880,1181,749
31885,1184,747
31890,1191,749
31895,1190,746
31900,1187,751
31905,1179,746
31910,1178,744
31915,1175,747
31920,1172,746
31925,1177,749
31930,1163,751
31935,1162,749
31940,1152,756
31945,1145,753
31950,1151,751
31955,1148,765
31960,1155,761
31965,1138,765
31970,1139,763
31975,1121,769
31980,1136,770
31985,1132,774
31990,1121,778
31995,1119,780
32000,1111,787
32005,1116,784
32009,1103,789
32015,1110,789
32020,1100,794
32025,1091,796
32030,1100,798
32034,1095,802
32040,1094,806
32045,1092,807
32049,1098,811
32055,1092,811
32060,1079,815
32064,1084,819
32070,1080,823
32075,1081,819
32080,1069,823
32085,1066,827
32090,1067,832
32095,1059,828
32100,1052,835
32104,1058,832
32110,1054,835
32115,1045,834
32119,1038,836
32125,1041,839
32130,1037,835
32134,1015,841
32140,1012,842
32145,1005,839
32150,993,835
32155,987,836
32159,989,835
32165,976,831
32170,947,840
32174,964,838
32180,954,839
32185,929,835
32189,927,838
32195,919,833
32200,907,840
32205,895,835
32210,880,835
32215,861,832
32220,864,834
32225,855,833
32229,846,832
32235,828,828
32240,828,826
32244,817,825
32250,807,826
32255,802,825
32259,789,825
32265,783,819
32270,778,824
32275,784,824
32280,770,824
32284,770,827
32290,753,824
32295,754,823
32299,754,824
32305,748,821
32310,743,818
32314,749,819
32320,747,822
32325,747,819
32330,746,820
32335,753,820
32340,762,820
32345,773,817
32350,765,819
32354,778,813
32360,782,816
32365,793,814
32369,823,810
32375,812,813
32380,832,807
32384,829,805
32390,861,806
32395,860,807
32400,883,810
32405,879,806
32409,902,799
32415,919,804
32420,936,801
32424,953,801
32430,960,792
32435,968,791
32439,979,798
32445,995,791
32450,1010,795
32455,1027,786
32460,1037,785
32465,1049,788
32470,1063,784
32475,1081,781
32479,1078,776
32485,1090,773
32490,1110,771
32494,1112,769
32500,1125,769
32505,1139,766
32509,1138,765
32515,1154,766
32520,1160,756
32525,1161,759
32530,1169,756
32534,1169,757
32540,1178,756
32545,1182,757
32549,1185,756
32555,1187,746
32560,1186,746
32564,1192,756
32570,1188,746
32575,1186,743
32580,1188,746
32585,1187,744
32590,1180,749
32595,1187,740
32600,1178,747
32604,1174,745
32610,1179,750
32615,1164,751
32619,1169,756
32625,1166,753
32630,1159,761
32634,1157,757
32640,1147,754
32645,1147,759
32650,1146,763
32655,1148,766
32659,1132,765
32665,1132,770
32670,1120,774
32674,1121,774
32680,1124,785
32685,1112,788
32689,1113,780
32695,1118,789
32700,1104,795
32705,1108,788
32710,1095,792
32715,1107,798
32720,1097,798
32725,1103,801
32729,1093,801
32735,1089,810
32740,1099,811
32744,1095,817
32750,1084,813
32755,1079,815
32759,1073,825
32765,1082,826
32770,1072,821
32775,1063,826
32780,1068,832
32785,1058,831
32790,1052,831
32795,1056,836
32800,1050,836
32805,1040,832
32810,1040,834
32815,1025,840
32820,1025,843
32825,1018,837
32830,1015,836
32835,1003,840
32840,1001,834
32845,993,838
32850,979,834
32855,973,837
32860,960,833
32865,961,837
32870,950,844
32875,937,837
32880,928,831
32885,912,835
32890,902,834
32895,888,834
32900,884,832
32905,877,837
32910,870,832
32915,851,834
32920,840,826
32925,839,832
32930,823,828
32935,821,832
32940,812,824
32945,794,826
32950,779,827
32955,778,826
32960,776,821
32965,776,828
32970,757,821
32975,775,824
32980,759,822
32985,762,820
32990,748,821
32995,750,817
33000,738,818
33005,743,825
33010,737,821
33015,755,816
33020,752,820
33025,750,810
33030,762,822
33035,767,813
33040,770,813
33045,782,816
33050,781,812
33055,794,814
33060,802,813
33065,821,808
33070,820,807
33075,832,812
33080,849,813
33085,854,810
33090,872,806
33095,891,804
33100,906,804
33105,918,804
33110,931,802
33115,941,803
33120,959,800
33125,968,798
33130,987,794
33135,996,790
33140,1019,792
33145,1011,789
33150,1040,782
33155,1058,783
33160,1061,786
33165,1066,778
33170,1084,775
33175,1096,776
33180,1113,769
33185,1122,768
33190,1130,772
33195,1142,766
33200,1148,765
33205,1143,763
33210,1154,758
33215,1166,760
33220,1172,756
33225,1175,760
33230,1182,757
33235,1177,758
33240,1185,755
33245,1183,745
33250,1188,750
33255,1184,750
33260,1180,746
33265,1184,746
33270,1185,749
33275,1190,750
33280,1181,750
33285,1191,747
33290,1178,748
33295,1168,748
33300,1169,754
33305,1161,745
33310,1172,755
33315,1163,753
33320,1158,749
33325,1151,755
33330,1144,760
33335,1142,760
33340,1146,762
33345,1130,763
33350,1139,764
33355,1124,772
33360,1126,771
33365,1126,769
33370,1133,775
33375,1126,778
33380,1127,787
33385,1113,780
33390,1105,783
33395,1105,789
33400,1104,793
33405,1098,801
33410,1101,799
33415,1098,805
33420,1096,801
33425,1088,806
33430,1091,809
33435,1076,811
33440,1084,820
33445,1079,816
33450,1080,820
33455,1087,823
33460,1070,817
33465,1065,826
33470,1064,830
33475,1059,834
33480,1066,825
33485,1066,830
33490,1053,827
33495,1046,832
33500,1036,840
33505,1036,840
33510,1032,841
33515,1028,841
33520,1010,838
33525,1012,842
33530,991,838
33535,993,837
33540,986,836
33545,984,843
33550,969,837
33555,955,836
33560,945,837
33565,943,839
33570,933,834
33575,916,832
33580,911,836
33585,901,831
33590,888,834
33595,875,834
33600,872,834
33605,860,836
33610,849,827
33615,842,829
33620,818,829
33625,817,829
33630,807,825
33635,795,826
33640,799,832
33645,782,825
33650,780,822
33655,763,828
33660,764,819
33665,760,825
33670,758,818
33675,756,824
33680,749,820
33685,742,813
33690,749,819
33695,751,820
33700,747,818
33705,750,816
33710,760,822
33715,747,818
33720,758,817
33725,764,812
33730,769,816
33735,775,815
33740,780,816
33745,798,814
33750,799,816
33755,809,812
33760,831,812
33765,836,807
33770,851,811
33775,847,809
33780,874,805
33785,887,804
33790,891,810
33795,916,803
33800,930,800
33805,946,802
33810,944,798
33815,961,792
33820,985,791
33825,988,795
33830,1015,789
33835,1026,791
33840,1042,784
33845,1048,784
33850,1055,782
33855,1070,780
33860,1085,780
33865,1100,779
33870,1103,773
33875,1121,769
33880,1134,765
33885,1130,767
33890,1137,765
33895,1151,763
33900,1150,759
33905,1158,757
33910,1168,760
33915,1168,754
33920,1176,753
33925,1180,755
33930,1179,750
33935,1183,747
33940,1183,752
33945,1182,743
33950,1193,749
33955,1181,747
33960,1187,744
33965,1188,751
33970,1178,757
33975,1194,752
33980,1178,750
33985,1179,754
33990,1167,750
33995,1174,746
34000,1167,750
34005,1168,751
34010,1159,755
34015,1155,749
34020,1159,760
34025,1150,763
34030,1146,760
34035,1142,759
34040,1140,765
34045,1131,765
34050,1129,770
34055,1134,775
34060,1115,774
34065,1127,784
34070,1121,777
34075,1105,787
34080,1111,789
34085,1111,792
34090,1109,793
34095,1092,794
34100,1097,798
34105,1099,802
34110,1087,801
34115,1088,808
34120,1083,815
34125,1090,816
34130,1092,816
34135,1088,821
34140,1080,821
34145,1073,823
34150,1077,826
34155,1060,824
34160,1067,827
34165,1069,831
34170,1048,830
34175,1053,836
34180,1057,835
34185,1047,836
34190,1040,840
34195,1027,835
34200,1033,837
34205,1014,835
34210,1016,840
34215,1006,834
34220,1000,838
34225,1007,841
34230,987,835
34235,981,845
34240,968,842
34245,963,840
34250,949,842
34255,934,840
34260,928,835
34265,916,837
34270,904,835
34275,898,835
34280,887,836
34285,884,836
34290,868,832
34295,856,836
34300,844,829
34305,840,830
34310,833,834
34315,821,830
34320,819,829
34325,801,826
34330,789,824
34335,789,829
34340,782,828
34345,772,823
34350,769,820
34355,761,826
34360,755,826
34365,758,820
34370,756,823
34375,750,819
34380,752,819
34385,742,822
34390,752,817
34395,750,819
34400,765,821
34405,747,812
34410,756,815
34415,769,815
34420,771,816
34425,786,815
34430,787,812
34435,793,810
34440,802,810
34445,809,809
34450,823,812
34455,832,809
34460,849,811
34465,859,805
34470,873,805
34475,886,803
34480,898,806
34485,904,805
34490,922,799
34495,935,798
34500,947,800
34505,966,797
34510,979,790
34515,987,792
34520,1002,790
34525,1021,784
34530,1027,786
34535,1044,784
34540,1060,785
34545,1064,775
34550,1088,776
34555,1094,771
34560,1099,778
34565,1118,772
34570,1124,772
34575,1133,762
34580,1139,761
34585,1155,765
34590,1162,760
34595,1155,764
34600,1166,761
34605,1171,755
34610,1177,754
34615,1176,751
34620,1176,753
34625,1186,755
34630,1193,749
34635,1199,753
34640,1195,751
34645,1183,746
34650,1184,745
34655,1190,746
34660,1181,752
34665,1195,741
34670,1172,751
34675,1179,748
34680,1176,748
34685,1166,748
34690,1165,747
34695,1155,756
34700,1160,754
34705,1153,758
34710,1148,754
34715,1154,752
34720,1147,764
34725,1142,764
34730,1141,764
34735,1136,769
34740,1121,769
34745,1141,775
34750,1120,775
34755,1115,779
34760,1121,789
34765,1113,786
34770,1117,787
34775,1109,790
34780,1101,790
34785,1103,797
34790,1100,798
34795,1088,800
34800,1095,808
34805,1099,807
34810,1085,810
34815,1088,810
34820,1083,814
34825,1076,819
34830,1077,822
34835,1076,816
34840,1077,823
34845,1067,830
34850,1079,824
34855,1064,832
34860,1065,829
34865,1056,839
34870,1052,833
34875,1051,834
34880,1042,831
34885,1034,832
34890,1029,834
34895,1017,837
34900,1019,841
34905,1019,835
34910,1003,838
34915,993,832
34920,982,836
34925,988,846
34930,969,837
34935,951,840
34940,954,837
34945,935,834
34950,925,838
34955,926,836
34960,917,836
34965,904,835
34970,885,835
34975,877,829
34980,857,827
34985,860,826
34990,848,835
34995,832,829
35000,830,828
35005,813,824
35010,819,831
35015,808,822
35020,790,824
35025,789,826
35030,783,829
35035,775,825
35040,775,823
35045,766,822
35050,749,823
35055,763,827
35060,755,818
35065,750,818
35070,748,819
35075,750,823
35080,751,819
35085,752,817
35090,746,817
35095,753,818
35100,752,820
35105,765,812
35110,767,816
35115,773,810
35120,783,812
35125,799,815
35130,803,815
35135,811,815
35140,828,811
35145,833,809
35150,845,808
35155,844,806
35160,875,807
35165,879,807
35170,897,803
35175,911,797
35180,927,800
35185,931,799
35190,949,799
35195,967,796
35200,978,796
35205,993,796
35210,1001,791
35215,1015,788
35220,1028,789
35225,1046,778
35230,1053,782
35235,1078,778
35240,1077,776
35245,1095,776
35250,1108,776
35255,1118,773
35260,1130,771
35265,1135,767
35270,1136,767
35275,1145,769
35280,1149,759
35285,1158,763
35290,1164,753
35295,1173,756
35300,1179,754
35305,1179,753
35310,1184,752
35315,1192,752
35320,1186,743
35325,1188,746
35330,1192,753
35335,1184,748
35340,1200,748
35345,1189,744
35350,1185,749
35355,1188,749
35360,1174,746
35365,1177,755
35370,1175,749
35375,1172,749
35380,1162,750
35385,1167,750
35390,1165,758
35395,1157,751
35400,1156,755
35405,1155,759
35410,1145,761
35415,1154,761
35420,1144,763
35425,1135,761
35430,1137,769
35435,1122,769
35440,1129,769
35445,1117,780
35450,1120,780
35455,1112,779
35460,1115,787
35465,1112,787
35470,1104,791
35475,1097,792
35480,1102,799
35485,1097,802
35490,1094,806
35495,1097,807
35500,1103,807
35505,1090,816
35510,1091,813
35515,1088,817
35520,1074,820
35525,1079,825
35530,1080,823
35535,1073,825
35540,1061,825
35545,1078,820
35550,1057,836
35555,1057,833
35560,1053,833
35565,1050,843
35570,1040,836
35575,1030,835
35580,1025,833
35585,1026,835
35590,1018,841
35595,1008,835
35600,1006,838
35605,1001,836
35610,990,840
35615,982,840
35620,976,836
35625,969,833
35630,949,840
35635,939,841
35640,932,838
35645,928,834
35650,907,834
35655,894,836
35660,893,838
35665,881,838
35670,868,828
35675,857,834
35680,856,830
35685,849,829
35690,827,825
35695,815,828
35700,820,826
35705,809,827
35710,791,825
35715,783,822
35720,787,829
35725,783,822
35730,766,823
35735,761,826
35740,758,828
35745,764,821
35750,760,824
35755,759,822
35760,755,824
35765,749,818
35770,745,819
35775,745,821
35780,750,818
35785,749,816
35790,759,818
35795,760,815
35800,764,813
35805,771,816
35810,779,816
35815,791,811
35820,794,812
35825,809,811
35830,820,812
35835,829,811
35840,838,812
35845,857,809
35850,863,801
35855,874,807
35860,893,808
35865,905,807
35870,920,802
35875,929,803
35880,942,796
35885,971,793
35890,976,800
35895,991,794
35900,1000,795
35905,1006,789
35910,1028,791
35915,1052,785
35920,1060,783
35925,1078,786
35930,1079,781
35935,1091,779
35940,1094,771
35945,1111,772
35950,1129,773
35955,1131,765
35960,1138,766
35965,1143,768
35970,1158,763
35975,1162,760
35980,1164,751
35985,1179,749
35990,1173,756
35995,1183,755
36000,1186,753
36005,1191,753
36010,1185,748
36015,1186,756
36020,1184,756
36025,1195,747
36030,1185,755
36035,1191,746
36040,1186,745
36045,1186,746
36050,1182,747
36055,1180,750
36060,1179,748
36065,1174,750
36070,1174,746
36075,1161,750
36080,1157,748
36085,1161,755
36090,1154,755
36095,1151,761
36100,1146,758
36105,1145,759
36110,1137,765
36115,1142,762
36120,1127,775
36125,1130,771
36130,1116,773
36135,1128,778
36140,1119,784
36145,1119,786
36150,1117,785
36155,1116,786
36160,1110,795
36165,1103,796
36170,1099,800
36175,1090,797
36180,1099,803
36185,1086,806
36190,1100,809
36195,1094,814
36200,1082,822
36205,1089,814
36210,1081,818
36215,1071,825
36220,1075,820
36225,1075,827
36230,1070,828
36235,1060,828
36240,1069,831
36245,1063,829
36250,1050,831
36255,1049,832
36260,1042,836
36265,1028,841
36270,1033,836
36275,1028,836
36280,1017,835
36285,1017,838
36290,1000,835
36295,999,837
36300,982,843
36305,986,840
36310,974,839
36315,960,842
36320,948,833
36325,944,841
36330,930,832
36335,919,840
36340,912,833
36345,897,836
36350,904,835
36355,881,829
36360,870,833
36365,856,830
36370,852,829
36375,847,832
36380,840,830
36385,817,830
36390,813,827
36395,811,827
36400,793,823
36405,796,825
36410,781,822
36415,774,822
36420,776,829
36425,764,823
36430,763,818
36435,755,822
36440,747,823
36445,751,814
36450,751,817
36455,748,823
36460,760,820
36465,753,817
36470,749,820
36475,744,819
36480,753,816
36485,762,814
36490,772,811
36495,780,815
36500,780,810
36505,801,810
36510,798,817
36515,805,811
36520,811,811
36525,829,812
36530,838,807
36535,847,807
36540,863,813
36545,878,805
36550,900,803
36555,896,801
36560,914,796
36565,928,797
36570,950,801
36575,962,799
36580,977,795
36585,985,794
36590,1017,790
36595,1014,789
36600,1033,784
36605,1045,786
36610,1054,782
36615,1065,784
36620,1083,782
36625,1090,781
36630,1103,772
36635,1102,769
36640,1127,774
36645,1123,766
36650,1136,764
36655,1147,762
36660,1155,759
36665,1163,764
36670,1177,759
36675,1167,756
36680,1180,751
36685,1175,752
36690,1182,755
36695,1188,757
36700,1181,754
36705,1187,752
36710,1190,747
36715,1185,746
36720,1193,744
36725,1189,746
36730,1179,747
36735,1192,748
36740,1185,748
36745,1167,751
36750,1169,749
36755,1177,751
36760,1177,752
36765,1165,753
36770,1163,758
36775,1150,752
36780,1153,762
36785,1150,756
36790,1150,760
36795,1148,764
36800,1143,764
36805,1140,767
36810,1129,765
36815,1125,769
36820,1124,769
36825,1117,776
36830,1121,783
36835,1109,787
36840,1114,780
36845,1103,790
36850,1099,795
36855,1094,798
36860,1103,800
36865,1097,806
36870,1103,801
36875,1091,804
36880,1091,809
36885,1089,813
36890,1086,813
36895,1082,816
36900,1082,818
36905,1083,821
36910,1077,821
36915,1076,822
36920,1069,820
36925,1055,834
36930,1071,828
36935,1061,835
36940,1054,830
36945,1043,834
36950,1032,837
36955,1039,837
36960,1033,838
36965,1019,836
36970,1017,836
36975,1013,830
36980,1001,840
36985,996,838
36990,999,833
36995,979,833
37000,980,837
37005,964,842
37010,945,838
37015,946,834
37020,941,831
37025,926,839
37030,915,831
37035,914,836
37040,890,837
37045,885,833
37050,870,831
37055,864,829
37060,864,830
37065,843,828
37070,832,829
37075,831,826
37080,806,829
37085,809,829
37090,790,824
37095,789,823
37100,774,827
37105,783,822
37110,773,821
37115,766,826
37120,761,824
37125,761,819
37130,760,828
37135,751,828
37140,748,820
37145,740,822
37150,744,817
37155,765,822
37160,761,817
37165,754,814
37170,756,818
37175,758,816
37180,770,811
37185,766,818
37190,786,813
37195,799,816
37200,812,814
37205,812,813
37210,810,813
37215,830,813
37220,847,809
37225,847,806
37230,861,808
37235,874,807
37240,884,807
37245,901,800
37250,911,798
37255,923,807
37260,940,796
37265,956,801
37270,979,795
37275,981,792
37280,1000,791
37285,1005,789
37290,1023,789
37295,1035,789
37300,1059,780
37305,1067,780
37310,1067,779
37315,1089,772
37320,1085,774
37325,1108,778
37330,1125,772
37335,1127,771
37340,1132,763
37345,1136,755
37350,1151,763
37355,1159,762
37360,1165,762
37365,1177,760
37370,1175,759
37375,1172,754
37380,1190,744
37385,1189,751
37390,1180,754
37395,1189,749
37400,1188,745
37405,1183,742
37410,1193,743
37415,1199,742
37420,1183,747
37425,1183,746
37430,1187,745
37435,1174,742
37440,1177,747
37445,1177,748
37450,1175,749
37455,1169,754
37460,1162,748
37465,1162,753
37470,1158,757
37475,1154,763
37480,1145,753
37485,1144,761
37490,1138,767
37495,1149,766
37500,1131,768
37505,1133,767
37510,1127,778
37515,1120,778
37520,1122,784
37525,1106,786
37530,1106,783
37535,1113,791
37540,1112,793
37545,1104,793
37550,1098,797
37555,1099,801
37560,1099,807
37565,1093,807
37570,1091,804
37575,1091,810
37580,1087,816
37585,1081,817
37590,1089,815
37595,1079,820
37600,1087,826
37605,1067,825
37610,1061,831
37615,1065,828
37620,1049,826
37625,1059,836
37630,1057,837
37635,1043,839
37640,1050,831
37645,1029,834
37650,1032,836
37655,1037,833
37660,1016,839
37665,1011,834
37670,1008,840
37675,989,833
37680,997,839
37685,981,840
37690,969,836
37695,956,839
37700,954,833
37705,939,836
37710,938,836
37715,920,837
37720,911,832
37725,904,835
37730,894,836
37735,887,832
37740,866,832
37745,863,832
37750,845,829
37755,838,830
37760,844,825
37765,831,830
37770,819,823
37775,800,825
37780,799,821
37785,786,827
37790,783,821
37795,774,822
37800,769,818
37805,761,821
37810,762,826
37815,755,821
37820,760,824
37825,757,823
37830,737,818
37835,746,822
37840,756,821
37845,752,820
37850,761,819
37855,753,823
37860,757,815
37865,749,815
37870,760,820
37875,772,812
37880,776,818
37885,787,817
37890,796,807
37895,821,810
37900,807,816
37905,831,806
37910,843,808
37915,850,806
37920,856,805
37925,874,806
37930,883,805
37935,900,804
37940,914,799
37945,930,798
37950,944,799
37955,949,797
37960,978,803
37965,984,794
37970,1002,789
37975,1018,788
37980,1030,783
37985,1040,783
37990,1054,784
37995,1068,786
