timestamp_ms,ir_finger,ir_toe
0,1046,696
5,1054,700
10,1062,696
15,1064,696
20,1075,696
25,1086,701
30,1091,706
35,1104,696
40,1113,700
45,1119,707
50,1123,706
55,1138,711
60,1126,715
65,1146,709
70,1141,716
75,1154,717
80,1163,722
85,1167,725
90,1173,729
95,1170,732
100,1164,736
105,1173,736
110,1174,741
115,1190,744
120,1178,753
125,1185,760
130,1180,758
135,1193,763
140,1183,767
145,1190,773
150,1190,778
155,1190,780
160,1186,790
165,1190,790
170,1184,793
175,1180,793
180,1184,810
185,1180,808
190,1190,808
195,1173,817
200,1166,816
205,1183,828
210,1171,826
215,1159,832
220,1171,836
225,1153,835
230,1155,838
235,1155,845
240,1163,842
245,1144,849
250,1150,850
255,1143,857
260,1145,856
265,1142,860
270,1142,863
275,1140,863
280,1129,866
285,1132,865
290,1127,870
295,1122,873
300,1122,865
305,1113,876
310,1110,877
315,1109,874
320,1112,872
325,1109,878
330,1108,877
335,1109,879
340,1108,874
345,1103,876
350,1098,877
355,1100,876
360,1093,879
365,1108,880
370,1087,873
375,1093,872
380,1098,875
385,1084,874
390,1078,871
395,1079,874
400,1084,869
405,1081,867
410,1072,877
415,1074,864
420,1077,869
425,1067,871
430,1069,865
435,1068,863
440,1063,862
445,1062,856
450,1051,864
455,1052,858
460,1045,857
465,1047,861
470,1049,860
475,1039,852
480,1039,854
485,1033,854
490,1021,851
495,1026,846
500,1016,853
505,1009,849
510,1005,845
515,999,843
520,994,843
525,995,844
530,978,844
535,969,837
540,959,842
545,955,837
550,955,840
555,944,838
560,936,843
565,930,842
570,930,847
575,914,832
580,906,838
585,903,839
590,898,835
595,890,833
600,877,833
605,872,836
610,869,835
615,850,827
620,845,832
625,840,830
630,829,829
635,823,827
640,817,826
645,813,823
650,809,820
655,798,820
660,784,822
665,789,820
670,779,814
675,772,818
680,774,812
685,767,812
690,760,809
695,752,811
700,752,805
705,754,803
710,756,799
715,741,800
720,742,794
725,751,790
730,748,787
735,741,785
740,744,785
745,751,780
750,754,776
755,751,771
760,755,774
765,760,766
770,762,768
775,771,760
780,762,755
785,774,750
790,780,755
795,787,755
800,794,749
805,786,739
810,803,743
815,810,742
820,813,737
825,830,736
830,836,728
835,836,724
840,847,724
845,867,719
850,864,713
855,868,715
860,885,712
865,909,708
870,909,705
875,926,704
880,931,700
885,940,698
890,946,704
895,965,697
900,977,699
905,986,697
910,991,701
915,1000,696
920,1019,690
925,1030,690
930,1028,694
935,1041,693
940,1056,695
945,1059,699
950,1079,701
955,1070,696
960,1079,700
965,1102,700
970,1113,704
975,1100,701
980,1113,707
985,1128,705
990,1134,711
995,1140,714
1000,1142,716
1004,1152,709
1010,1163,713
1014,1163,725
1020,1166,726
1025,1177,731
1030,1163,736
1035,1167,736
1040,1165,733
1045,1177,739
1050,1183,752
1055,1183,750
1060,1185,752
1065,1188,758
1070,1185,761
1075,1188,765
1080,1188,774
1085,1188,777
1090,1187,780
1095,1189,781
1100,1191,788
1105,1191,795
1110,1183,800
1115,1177,805
1120,1187,810
1125,1178,813
1130,1177,818
1135,1174,816
1140,1167,819
1145,1172,827
1150,1172,834
1155,1163,837
1160,1157,833
1165,1157,836
1170,1150,847
1175,1158,849
1180,1149,846
1185,1146,850
1190,1149,856
1195,1138,856
1200,1137,859
1205,1136,863
1210,1124,858
1215,1134,866
1220,1126,866
1225,1122,869
1230,1117,869
1235,1122,874
1240,1124,877
1245,1116,881
1250,1116,876
1255,1110,884
1260,1107,872
1265,1118,876
1270,1105,875
1275,1106,872
1280,1099,880
1285,1094,878
1290,1098,877
1295,1091,880
1300,1102,879
1305,1095,878
1310,1085,877
1315,1080,872
1320,1081,872
1325,1080,872
1330,1086,872
1335,1081,870
1340,1074,874
1345,1080,869
1350,1071,865
1355,1078,869
1360,1072,864
1365,1073,863
1370,1065,866
1375,1058,863
1380,1060,861
1385,1046,859
1390,1054,854
1395,1056,861
1400,1040,863
1405,1042,855
1410,1040,857
1415,1029,853
1420,1018,851
1425,1024,847
1430,1013,853
1435,1014,855
1440,1003,843
1445,1002,853
1450,995,847
1455,997,846
1460,986,851
1465,973,845
1470,968,840
1475,968,844
1480,958,841
1485,947,841
1490,945,845
1495,939,839
1500,929,834
1505,910,842
1510,909,837
1515,909,834
1520,898,836
1525,886,834
1530,884,833
1535,878,833
1540,868,834
1545,858,827
1550,851,830
1555,849,825
1560,837,826
1565,835,828
1570,826,826
1575,819,828
1580,812,824
1585,799,815
1590,805,822
1595,798,816
1600,791,820
1605,793,820
1610,774,810
1615,769,811
1620,773,810
1625,766,806
1630,759,805
1635,752,802
1640,763,803
1645,746,805
1650,747,799
1655,746,798
1660,745,787
1665,748,787
1670,755,787
1675,749,787
1680,746,780
1685,742,776
1690,751,777
1695,754,773
1700,760,764
1705,763,771
1710,765,770
1715,762,757
1720,772,756
1725,769,751
1730,780,749
1735,787,754
1740,781,742
1745,802,736
1750,811,737
1755,813,732
1760,821,731
1765,832,729
1770,838,724
1775,857,724
1780,866,719
1785,879,713
1790,883,714
1795,893,713
1800,903,712
1805,907,710
1810,922,706
1815,929,709
1820,942,702
1825,950,700
1830,955,707
1835,966,701
1840,981,698
1845,991,698
1850,993,695
1855,1011,692
1860,1025,700
1865,1027,694
1870,1038,696
1875,1059,694
1880,1060,698
1885,1064,698
1890,1081,693
1895,1078,700
1900,1093,707
1905,1101,703
1910,1115,702
1915,1112,704
1920,1117,701
1925,1130,713
1930,1142,711
1935,1150,711
1940,1145,715
1945,1158,724
1950,1151,725
1955,1161,727
1960,1175,731
1965,1172,731
1970,1175,734
1975,1182,739
1980,1183,741
1985,1183,748
1990,1189,749
1995,1190,756
2000,1188,760
2005,1189,757
2009,1193,765
2015,1187,771
2020,1189,774
2025,1170,775
2029,1183,782
2035,1188,790
2040,1193,793
2045,1178,796
2050,1185,807
2055,1178,806
2060,1176,807
2065,1184,817
2070,1171,813
2075,1174,822
2080,1177,828
2085,1172,826
2090,1174,835
2095,1154,840
2100,1166,835
2105,1142,844
2110,1150,848
2115,1153,854
2120,1150,849
2125,1144,857
2130,1142,861
2135,1142,863
2140,1140,860
2145,1133,864
2150,1133,867
2155,1135,876
2160,1120,865
2165,1134,869
2170,1125,871
2175,1115,876
2180,1108,872
2185,1122,874
2190,1107,876
2195,1110,880
2200,1119,878
2205,1105,881
2210,1107,880
2215,1108,874
2220,1098,879
2225,1098,878
2230,1102,874
2235,1093,876
2240,1085,874
2245,1090,876
2250,1091,873
2255,1090,873
2260,1084,873
2265,1095,872
2270,1078,876
2275,1077,878
2280,1080,869
2285,1075,878
2290,1072,868
2295,1083,866
2300,1073,862
2305,1064,859
2310,1061,865
2315,1054,863
2320,1051,857
2325,1050,856
2330,1044,862
2335,1055,860
2340,1042,856
2345,1027,852
2350,1041,853
2355,1040,852
2360,1024,857
2365,1020,853
2370,1011,851
2375,1010,851
2380,1007,848
2385,993,849
2390,990,852
2395,979,852
2400,984,849
2405,976,842
2410,964,845
2415,955,840
2420,964,845
2425,940,844
2430,948,838
2435,926,837
2440,931,834
2445,917,838
2450,905,837
2455,909,838
2460,888,840
2465,885,831
2470,881,832
2475,882,831
2480,867,830
2485,857,828
2490,862,830
2495,837,823
2500,831,822
2505,829,826
2510,816,824
2515,812,827
2520,808,822
2525,796,817
2530,792,826
2535,777,819
2540,769,820
2545,774,810
2550,774,808
2555,770,812
2560,765,808
2565,761,804
2570,753,805
2575,748,797
2580,754,796
2585,748,797
2590,753,795
2595,750,792
2600,752,792
2605,762,787
2610,745,776
2615,763,778
2620,747,782
2625,746,778
2630,748,770
2635,766,769
2640,760,766
2645,758,769
2650,779,762
2655,772,753
2660,780,754
2665,776,754
2670,794,749
2675,802,749
2680,808,736
2685,813,738
2690,823,732
2695,824,731
2700,838,735
2705,841,729
2710,861,721
2715,865,720
2720,874,716
2725,874,715
2730,889,707
2735,898,711
2740,908,709
2745,917,705
2750,933,707
2755,943,704
2760,951,705
2765,963,705
2770,974,697
2775,988,698
2780,993,690
2785,999,693
2790,1014,696
2795,1025,696
2800,1031,696
2805,1035,692
2810,1059,699
2815,1054,694
2820,1066,701
2825,1073,695
2830,1081,702
2835,1091,701
2840,1104,701
2845,1111,704
2850,1123,704
2855,1132,704
2860,1120,714
2865,1139,710
2870,1131,713
2875,1142,719
2880,1157,718
2885,1158,723
2890,1158,726
2895,1170,732
2900,1175,731
2905,1167,737
2910,1176,737
2915,1179,744
2920,1181,744
2925,1184,749
2930,1186,753
2935,1186,756
2940,1186,764
2945,1188,762
2950,1198,776
2955,1202,776
2960,1181,779
2965,1188,786
2970,1191,792
2975,1186,792
2980,1190,803
2985,1180,803
2990,1181,806
2995,1186,808
3000,1171,815
3005,1173,821
3010,1171,820
3015,1165,824
3020,1166,829
3025,1169,832
3030,1167,838
3035,1157,842
3040,1159,839
3045,1154,847
3050,1152,848
3055,1138,859
3060,1141,854
3065,1142,856
3070,1138,860
3075,1151,865
3080,1139,862
3085,1129,872
3090,1131,867
3095,1123,869
3100,1120,872
3105,1119,877
3110,1119,865
3115,1117,875
3120,1117,871
3125,1113,878
3130,1103,877
3135,1102,876
3140,1096,878
3145,1110,877
3150,1105,876
3155,1099,880
3160,1095,877
3165,1096,882
3170,1097,875
3175,1092,879
3180,1099,870
3185,1088,875
3190,1087,878
3195,1091,875
3200,1080,874
3205,1075,877
3210,1081,865
3215,1074,867
3220,1070,866
3225,1071,867
3230,1066,864
3235,1061,870
3240,1068,864
3245,1057,860
3250,1051,856
3255,1060,856
3260,1054,862
3265,1045,859
3270,1047,859
3275,1043,850
3280,1038,855
3285,1035,854
3290,1026,855
3295,1018,852
3300,1027,847
3305,1014,851
3310,1016,852
3315,1007,847
3320,989,848
3325,993,850
3330,990,848
3335,985,845
3340,974,841
3345,967,845
3350,954,847
3355,948,844
3360,952,839
3365,944,841
3370,927,835
3375,922,843
3380,915,839
3385,911,840
3390,895,839
3395,893,836
3400,878,832
3405,881,838
3410,873,833
3415,866,833
3420,848,830
3425,849,829
3430,839,824
3435,833,824
3440,823,824
3445,823,825
3450,814,825
3455,802,819
3460,793,822
3465,788,818
3470,793,817
3475,776,812
3480,778,814
3485,773,810
3490,768,813
3495,758,815
3500,756,808
3505,762,804
3510,761,808
3515,754,799
3520,744,801
3525,746,796
3530,742,792
3535,745,786
3540,750,789
3545,751,789
3550,746,783
3555,749,778
3560,754,778
3565,753,780
3570,748,765
3575,765,765
3580,772,765
3585,767,762
3590,769,763
3595,780,755
3600,787,751
3605,794,746
3610,790,748
3615,807,739
3620,812,736
3625,818,738
3630,826,733
3635,832,724
3640,838,730
3645,859,726
3650,864,722
3655,862,717
3660,875,716
3665,891,712
3670,894,710
3675,906,708
3680,922,708
3685,927,704
3690,931,701
3695,953,706
3700,969,695
3705,969,700
3710,984,701
3715,1000,690
3720,1008,697
3725,1013,696
3730,1025,699
3735,1031,699
3740,1040,694
3745,1052,693
3750,1058,697
3755,1069,696
3760,1075,703
3765,1090,696
3770,1100,692
3775,1102,705
3780,1116,705
3785,1119,704
3790,1132,702
3795,1135,708
3800,1146,708
3805,1138,712
3810,1137,719
3815,1154,719
3820,1155,718
3825,1165,728
3830,1151,730
3835,1177,731
3840,1168,737
3845,1179,738
3850,1178,747
3855,1178,751
3860,1181,750
3865,1184,757
3870,1193,759
3875,1199,763
3880,1200,770
3885,1182,769
3890,1192,779
3895,1187,784
3900,1191,785
3905,1193,782
3910,1188,800
3915,1187,799
3920,1188,802
3925,1181,807
3930,1183,810
3935,1169,817
3940,1176,821
3945,1178,822
3950,1174,827
3955,1170,827
3960,1169,832
3965,1164,831
3970,1165,841
3975,1157,849
3980,1149,842
3985,1153,845
3990,1152,849
3995,1137,857
4000,1142,853
4005,1151,857
4010,1148,865
4014,1139,861
4019,1125,863
4025,1125,870
4030,1131,874
4035,1125,872
4040,1117,874
4045,1115,875
4050,1116,880
4054,1119,876
4059,1106,875
4065,1110,875
4070,1104,877
4075,1102,876
4080,1109,872
4085,1094,870
4090,1101,881
4094,1102,874
4100,1097,877
4105,1094,883
4110,1091,877
4115,1083,874
4120,1087,878
4125,1077,873
4130,1083,875
4135,1075,872
4140,1081,868
4145,1083,868
4150,1081,873
4155,1074,867
4160,1073,864
4165,1079,865
4170,1069,861
4175,1065,868
4180,1066,868
4185,1060,863
4190,1054,865
4195,1045,858
4200,1053,858
4205,1054,863
4210,1050,853
4215,1031,857
4220,1033,855
4225,1035,848
4230,1029,849
4235,1020,846
4240,1015,856
4245,1009,852
4250,1003,849
4255,997,845
4260,990,850
4265,971,846
4270,970,840
4275,988,847
4280,966,842
4285,970,842
4290,949,839
4295,946,837
4300,933,842
4305,930,834
4310,931,835
4315,917,836
4320,903,838
4325,900,836
4330,896,834
4335,893,833
4340,877,829
4345,880,830
4350,863,830
4355,855,827
4360,856,831
4365,838,829
4370,844,827
4375,828,821
4380,814,825
4385,818,826
4390,805,827
4395,803,822
4400,795,814
4405,792,817
4410,790,819
4415,778,816
4420,770,813
4425,772,812
4430,774,808
4435,751,808
4440,753,801
4445,752,804
4450,751,801
4455,747,800
4460,749,794
4465,745,797
4470,758,787
4475,746,790
4480,752,781
4485,752,782
4490,750,779
4495,749,776
4500,757,777
4505,756,773
4510,761,767
4515,768,765
4520,778,758
4525,779,756
4530,774,751
4535,778,756
4540,789,752
4545,795,745
4550,799,738
4555,806,739
4560,815,737
4565,829,732
4570,832,732
4575,851,728
4580,856,722
4585,861,719
4590,870,719
4595,879,713
4600,890,711
4605,902,710
4610,911,707
4615,919,700
4620,938,700
4625,930,702
4630,949,696
4635,955,699
4640,971,701
4645,990,696
4650,987,696
4655,1008,696
4660,1004,704
4665,1024,693
4670,1040,692
4675,1052,691
4680,1053,697
4685,1051,699
4690,1061,695
4695,1078,695
4700,1087,699
4705,1101,700
4710,1109,701
4715,1111,700
4720,1112,705
4725,1126,707
4730,1128,710
4735,1139,711
4740,1150,714
4745,1153,718
4750,1152,716
4755,1155,723
4760,1175,728
4765,1171,738
4770,1169,731
4775,1165,732
4780,1171,741
4785,1181,738
4790,1178,749
4795,1189,747
4800,1183,754
4805,1187,762
4810,1187,763
4815,1177,768
4820,1188,776
4825,1189,774
4830,1192,777
4835,1183,786
4840,1185,787
4845,1187,791
4850,1190,795
4855,1173,800
4860,1182,803
4865,1180,807
4870,1181,813
4875,1175,824
4880,1169,821
4885,1172,822
4890,1169,828
4895,1165,836
4900,1162,834
4905,1166,837
4910,1161,844
4915,1158,846
4920,1150,854
4925,1140,848
4930,1148,853
4935,1142,852
4940,1139,853
4945,1135,861
4950,1139,865
4955,1137,869
4960,1126,864
4965,1122,866
4970,1130,870
4975,1132,873
4980,1120,869
4985,1110,875
4990,1112,879
4995,1105,878
5000,1102,873
5005,1111,876
5010,1111,877
5015,1109,884
5020,1101,887
5025,1101,880
5030,1097,869
5035,1101,873
5040,1086,877
5045,1092,879
5050,1084,872
5055,1089,873
5060,1086,879
5065,1076,876
5070,1088,871
5075,1085,873
5080,1077,870
5085,1073,869
5090,1081,872
5095,1075,869
5100,1071,864
5105,1068,867
5110,1061,869
5115,1063,864
5120,1053,864
5125,1055,861
5130,1050,861
5135,1048,857
5140,1048,860
5145,1037,856
5150,1036,851
5155,1032,853
5160,1026,853
5165,1015,852
5170,1013,852
5175,1015,849
5180,1013,842
5185,1014,851
5190,1000,848
5195,995,847
5200,994,844
5205,972,838
5210,976,843
5215,973,838
5220,960,843
5225,946,837
5230,943,838
5235,939,842
5240,933,841
5245,925,839
5250,923,840
5255,902,837
5260,904,829
5265,891,836
5270,889,834
5275,880,829
5280,867,828
5285,858,829
5290,850,835
5295,849,833
5300,841,826
5305,836,829
5310,809,823
5315,819,823
5320,809,828
5325,817,821
5330,796,821
5335,802,819
5340,795,818
5345,777,814
5350,778,817
5355,768,816
5360,774,812
5365,762,806
5370,757,810
5375,753,801
5380,764,807
5385,751,802
5390,749,800
5395,752,795
5400,746,792
5405,740,789
5410,750,783
5415,748,783
5420,750,784
5425,746,777
5430,753,777
5435,747,769
5440,758,770
5445,759,768
5450,764,762
5455,761,765
5460,764,756
5465,780,754
5470,777,755
5475,787,747
5480,799,746
5485,797,739
5490,803,743
5495,814,735
5500,812,735
5505,841,736
5510,842,733
5515,855,724
5520,861,724
5525,873,716
5530,879,719
5535,886,708
5540,893,711
5545,904,710
5550,916,707
5555,932,709
5560,933,703
5565,955,703
5570,957,699
5575,968,694
5580,982,703
5585,992,696
5590,1010,702
5595,1014,694
5600,1021,696
5605,1027,691
5610,1046,698
5615,1041,694
5620,1044,694
5625,1070,696
5630,1070,697
5635,1088,695
5640,1084,701
5645,1092,700
5650,1108,699
5655,1117,708
5660,1123,711
5665,1121,711
5670,1145,708
5675,1145,713
5680,1139,713
5685,1163,711
5690,1157,719
5695,1156,722
5700,1167,734
5705,1168,730
5710,1167,733
5715,1175,734
5720,1178,740
5725,1181,745
5730,1178,754
5735,1175,754
5740,1179,758
5745,1185,765
5750,1180,765
5755,1185,770
5760,1198,773
5765,1186,777
5770,1187,788
5775,1196,790
5780,1190,794
5785,1187,794
5790,1191,802
5795,1181,805
5800,1168,807
5805,1169,812
5810,1175,821
5815,1158,823
5820,1169,827
5825,1166,830
5830,1171,832
5835,1161,838
5840,1160,842
5845,1154,848
5850,1155,851
5855,1151,846
5860,1152,850
5865,1143,857
5870,1144,856
5875,1136,865
5880,1132,861
5885,1139,865
5890,1131,865
5895,1130,871
5900,1122,871
5905,1121,870
5910,1122,871
5915,1128,873
5920,1107,878
5925,1114,871
5930,1109,878
5935,1114,875
5940,1108,874
5945,1101,876
5950,1101,878
5955,1102,878
5960,1102,875
5965,1100,879
5970,1097,881
5975,1102,881
5980,1097,876
5985,1090,876
5990,1080,875
5995,1088,873
6000,1090,872
6005,1081,871
6010,1079,874
6015,1074,873
6020,1070,865
6025,1078,871
6030,1076,866
6035,1067,866
6040,1077,868
6045,1064,870
6050,1059,865
6055,1060,861
6060,1063,863
6065,1056,857
6070,1043,851
6075,1049,852
6080,1042,863
6085,1030,855
6090,1030,848
6095,1027,850
6100,1024,852
6105,1022,846
6110,1015,853
6115,1002,854
6120,998,849
6125,997,846
6130,979,855
6135,993,846
6140,980,849
6145,973,840
6150,973,842
6155,958,842
6160,963,841
6165,935,839
6170,936,840
6175,934,840
6180,912,834
6185,914,836
6190,908,833
6195,892,840
6200,893,833
6205,888,832
6210,883,828
6215,864,833
6220,861,834
6225,856,833
6230,841,827
6235,840,827
6240,830,827
6245,827,829
6250,816,824
6255,817,823
6260,810,828
6265,792,825
6270,801,816
6275,782,812
6280,782,818
6285,781,809
6290,777,810
6295,768,815
6300,761,810
6305,758,806
6310,756,804
6315,760,800
6320,753,803
6325,749,798
6330,751,796
6335,752,790
6340,746,794
6345,751,784
6350,746,786
6355,747,786
6360,747,783
6365,753,773
6370,754,775
6375,764,773
6380,757,763
6385,759,764
6390,772,759
6395,776,758
6400,779,760
6405,792,751
6410,783,750
6415,794,746
6420,805,741
6425,808,741
6430,811,736
6435,823,731
6440,842,724
6445,846,733
6450,843,726
6455,858,722
6460,864,719
6465,876,718
6470,886,715
6475,899,709
6480,896,703
6485,924,708
6490,927,704
6495,935,706
6500,942,706
6505,957,703
6510,965,695
6515,987,698
6520,995,696
6525,1000,701
6530,1011,692
6535,1023,694
6540,1034,695
6545,1042,698
6550,1043,695
6555,1056,692
6560,1063,697
6565,1080,696
6570,1091,696
6575,1093,699
6580,1102,706
6585,1113,699
6590,1112,709
6595,1113,708
6600,1126,705
6605,1130,708
6610,1154,708
6615,1152,709
6620,1146,719
6625,1152,718
6630,1159,719
6635,1161,731
6640,1174,729
6645,1176,736
6650,1180,737
6655,1180,745
6660,1179,745
6665,1185,752
6670,1186,754
6675,1185,755
6680,1182,762
6685,1192,766
6690,1189,774
6695,1189,775
6700,1182,779
6705,1178,782
6710,1177,790
6715,1184,792
6720,1176,802
6725,1179,798
6730,1181,812
6735,1177,809
6740,1171,810
6745,1175,813
6750,1177,817
6755,1177,821
6760,1165,830
6765,1163,832
6770,1153,837
6775,1157,841
6780,1157,849
6785,1151,843
6790,1147,846
6795,1148,850
6800,1145,857
6805,1142,857
6810,1144,864
6815,1139,863
6820,1132,863
6825,1134,862
6830,1128,872
6835,1127,873
6840,1123,874
6845,1135,873
6850,1123,865
6855,1114,877
6860,1110,875
6865,1113,879
6870,1111,879
6875,1110,874
6880,1113,880
6885,1108,878
6890,1099,872
6895,1097,877
6900,1097,885
6905,1098,883
6910,1098,876
6915,1095,876
6920,1088,879
6925,1078,870
6930,1095,877
6935,1093,875
6940,1080,877
6945,1077,871
6950,1085,872
6955,1080,867
6960,1074,862
6965,1076,867
6970,1068,869
6975,1059,861
6980,1064,862
6985,1071,864
6990,1067,861
6995,1051,861
7000,1051,857
7005,1054,857
7010,1042,857
7015,1044,854
7020,1042,853
7025,1032,852
7030,1032,851
7035,1031,846
7040,1022,853
7045,1024,849
7050,1008,849
7055,1012,847
7060,993,849
7065,997,847
7070,980,846
7075,973,843
7080,967,845
7085,979,839
7090,964,846
7095,954,844
7100,944,839
7105,939,840
7110,926,847
7115,924,834
7120,926,841
7125,913,838
7130,897,836
7135,895,838
7140,890,838
7145,887,830
7150,871,832
7155,863,839
7160,851,825
7165,856,822
7170,844,828
7175,837,832
7180,824,830
7185,815,825
7190,807,824
7195,801,823
7200,797,823
7205,805,821
7210,790,817
7215,780,817
7220,785,821
7225,771,814
7230,779,816
7235,765,809
7240,759,813
7245,759,812
7250,751,800
7255,756,800
7260,753,798
7265,743,792
7270,750,792
7275,744,794
7280,755,784
7285,750,786
7290,739,784
7295,743,777
7300,747,776
7305,758,770
7310,762,773
7315,760,766
7320,774,761
7325,762,756
7330,772,759
7335,773,753
7340,786,751
7345,788,744
7350,799,748
7355,798,736
7360,800,739
7365,810,736
7370,824,732
7375,837,735
7380,838,729
7385,850,724
7390,854,723
7395,862,718
7400,888,722
7405,886,716
7410,903,712
7415,902,710
7420,917,706
7425,920,705
7430,935,701
7435,950,697
7440,954,701
7445,956,698
7450,983,695
7455,994,696
7460,995,696
7465,1010,691
7470,1026,695
7475,1028,696
7480,1045,699
7485,1051,693
7490,1056,694
7495,1069,692
7500,1071,701
7505,1086,695
7510,1090,697
7515,1102,702
7520,1109,699
7525,1116,703
7530,1116,705
7535,1129,710
7540,1124,711
7545,1142,716
7550,1151,710
7555,1160,717
7560,1151,721
7565,1168,721
7570,1150,728
7575,1169,729
7580,1179,738
7585,1176,738
7590,1171,749
7595,1189,743
7600,1178,747
7605,1189,758
7610,1184,755
7615,1183,764
7620,1186,767
7625,1195,779
7630,1180,775
7635,1188,777
7640,1188,780
7645,1182,783
7650,1197,790
7655,1181,795
7660,1177,794
7665,1183,805
7670,1178,804
7675,1171,812
7680,1161,820
7685,1171,825
7690,1163,824
7695,1167,830
7700,1166,828
7705,1161,841
7710,1165,838
7715,1161,846
7720,1148,844
7725,1151,847
7730,1152,858
7735,1150,847
7740,1144,860
7745,1142,857
7750,1132,861
7755,1127,863
7760,1126,865
7765,1135,862
7770,1116,865
7775,1135,870
7780,1116,872
7785,1122,873
7790,1122,873
7795,1117,876
7800,1111,869
7805,1106,873
7810,1106,877
7815,1103,881
7820,1099,879
7825,1107,878
7830,1104,876
7835,1100,873
7840,1095,872
7845,1086,878
7850,1097,876
7855,1090,878
7860,1095,876
7865,1087,879
7870,1091,871
7875,1085,872
7880,1086,876
7885,1071,872
7890,1078,875
7895,1079,873
7900,1076,871
7905,1070,867
7910,1059,869
7915,1063,862
7920,1066,867
7925,1067,861
7930,1056,860
7935,1056,862
7940,1053,863
7945,1045,860
7950,1046,853
7955,1032,854
7960,1034,856
7965,1024,860
7970,1020,850
7975,1024,847
7980,1017,849
7985,1008,847
7990,1003,851
7995,997,852
8000,989,843
8005,978,846
8010,986,843
8015,980,846
8020,977,849
8025,963,844
8029,950,841
8035,950,840
8039,934,840
8045,931,834
8050,926,835
8055,914,839
8060,911,835
8064,907,834
8070,897,835
8074,884,832
8080,876,834
8085,880,834
8090,861,831
8095,851,835
8100,846,829
8105,850,829
8109,843,827
8115,833,835
8119,827,821
8125,823,824
8130,806,821
8135,806,822
8140,786,827
8145,789,819
8150,781,814
8154,779,820
8160,778,813
8164,766,813
8170,765,809
8175,757,808
8180,756,809
8185,754,805
8189,754,800
8195,757,802
8200,745,792
8205,744,791
8210,752,791
8215,749,794
8220,746,786
8225,741,779
8230,746,779
8235,751,776
8240,752,772
8245,754,766
8250,761,763
8255,765,765
8260,762,763
8265,769,757
8270,775,754
8275,787,755
8280,779,749
8285,786,747
8290,798,744
8295,806,739
8300,811,737
8305,822,728
8310,833,732
8315,841,732
8320,845,728
8325,859,722
8330,859,722
8335,872,716
8340,884,712
8345,896,708
8350,909,707
8355,915,703
8360,924,705
8365,939,702
8370,942,705
8375,957,695
8380,968,700
8385,978,702
8390,988,696
8395,996,699
8400,1008,698
8405,1028,694
8410,1027,695
8415,1038,695
8420,1050,695
8425,1060,694
8430,1063,685
8435,1081,701
8440,1089,700
8445,1087,702
8450,1101,706
8455,1106,702
8460,1117,705
8465,1123,701
8470,1126,711
8475,1146,706
8480,1132,714
8485,1147,718
8490,1160,723
8495,1160,717
8500,1164,723
8505,1171,731
8510,1175,734
8515,1180,735
8520,1178,740
8525,1168,741
8530,1182,753
8535,1181,746
8540,1187,751
8545,1185,757
8550,1184,767
8555,1182,768
8560,1187,768
8565,1200,776
8570,1180,778
8575,1195,782
8580,1181,789
8585,1188,790
8590,1187,800
8595,1175,802
8600,1187,809
8605,1175,808
8610,1178,812
8615,1170,823
8620,1179,817
8625,1181,825
8630,1178,831
8635,1160,832
8640,1160,837
8645,1157,844
8650,1150,841
8655,1153,849
8660,1151,852
8665,1143,849
8670,1148,855
8675,1139,861
8680,1137,858
8685,1131,867
8690,1130,865
8695,1121,865
8700,1135,867
8705,1125,869
8710,1128,871
8715,1118,877
8720,1121,869
8725,1116,869
8730,1110,876
8735,1110,871
8740,1106,878
8745,1098,876
8750,1104,882
8755,1107,879
8760,1104,882
8765,1101,878
8770,1107,874
8775,1106,874
8780,1095,877
8785,1089,874
8790,1089,880
8795,1088,874
8800,1086,875
8805,1078,871
8810,1086,869
8815,1083,870
8820,1073,871
8825,1070,872
8830,1076,871
8835,1066,871
8840,1067,865
8845,1075,873
8850,1067,866
8855,1058,867
8860,1059,862
8865,1068,858
8870,1054,853
8875,1040,863
8880,1037,849
8885,1033,853
8890,1033,855
8895,1026,849
8900,1032,850
8905,1031,850
8910,1022,844
8915,1014,849
8920,1015,851
8925,1011,844
8930,994,843
8935,994,846
8940,988,846
8945,984,841
8950,975,838
8955,955,847
8960,961,846
8965,958,842
8970,945,842
8975,939,838
8980,935,840
8985,936,843
8990,913,837
8995,907,838
9000,898,840
9005,896,833
9010,884,839
9015,878,829
9020,872,826
9025,870,830
9030,849,830
9035,847,830
9040,839,826
9045,832,828
9050,834,827
9055,814,826
9060,808,825
9065,797,825
9070,807,824
9075,795,816
9080,787,820
9085,788,820
9090,783,813
9095,771,811
9100,774,814
9105,757,808
9110,760,810
9115,758,804
9120,747,803
9125,757,799
9130,748,799
9135,748,800
9140,754,798
9145,753,791
9150,749,786
9155,740,785
9160,746,790
9165,750,779
9170,750,777
9175,758,776
9180,754,772
9185,758,768
9190,762,761
9195,769,763
9200,780,757
9205,773,757
9210,788,753
9215,779,746
9220,796,745
9225,800,740
9230,809,739
9235,815,735
9240,817,734
9245,820,728
9250,844,729
9255,848,726
9260,860,721
9265,869,714
9270,880,721
9275,879,709
9280,892,710
9285,897,708
9290,919,709
9295,930,711
9300,933,701
9305,946,700
9310,953,703
9315,972,699
9320,978,693
9325,995,693
9330,989,695
9335,1011,697
9340,1023,691
9345,1023,694
9350,1039,687
9355,1049,690
9360,1054,694
9365,1068,694
9370,1066,699
9375,1081,696
9380,1092,702
9385,1107,699
9390,1110,703
9395,1116,703
9400,1119,704
9405,1137,704
9410,1134,713
9415,1136,712
9420,1147,712
9425,1150,721
9430,1156,727
9435,1169,722
9440,1167,733
9445,1166,728
9450,1169,728
9455,1180,736
9460,1180,741
9465,1184,750
9470,1182,747
9475,1180,751
9480,1181,760
9485,1193,759
9490,1184,767
9495,1182,772
9500,1190,777
9505,1196,779
9510,1181,784
9515,1188,783
9520,1180,788
9525,1184,797
9530,1190,799
9535,1189,801
9540,1181,810
9545,1181,811
9550,1168,815
9555,1176,821
9560,1166,825
9565,1179,822
9570,1168,838
9575,1161,838
9580,1152,843
9585,1164,843
9590,1152,849
9595,1152,845
9600,1151,855
9605,1153,852
9610,1140,855
9615,1136,856
9620,1146,861
9625,1145,858
9630,1137,866
9635,1127,865
9640,1126,867
9645,1124,865
9650,1124,874
9655,1128,869
9660,1115,871
9665,1123,876
9670,1116,879
9675,1117,876
9680,1109,876
9685,1100,879
9690,1099,877
9695,1101,874
9700,1109,877
9705,1104,878
9710,1094,879
9715,1089,876
9720,1086,872
9725,1093,879
9730,1090,875
9735,1084,875
9740,1091,876
9745,1089,873
9750,1082,870
9755,1083,870
9760,1077,871
9765,1070,867
9770,1071,869
9775,1073,869
9780,1073,866
9785,1066,865
9790,1050,862
9795,1058,868
9800,1064,862
9805,1054,856
9810,1046,859
9815,1050,852
9820,1041,854
9825,1044,856
9830,1033,852
9835,1026,854
9840,1022,851
9845,1025,853
9850,1007,847
9855,1013,847
9860,1000,847
9865,1001,850
9870,997,842
9875,980,846
9880,985,845
9885,977,844
9890,972,847
9895,966,847
9900,954,837
9905,954,844
9910,934,840
9915,930,838
9920,933,834
9925,907,838
9930,913,829
9935,906,834
9940,900,831
9945,896,833
9950,882,830
9955,874,828
9960,870,827
9965,856,829
9970,848,831
9975,846,822
9980,843,827
9985,829,831
9990,817,825
9995,814,825
10000,812,825
10005,807,822
10010,804,817
10015,788,823
10020,779,816
10025,783,819
10030,777,814
10035,778,813
10040,771,809
10045,762,808
10050,761,807
10055,749,805
10060,758,801
10065,755,800
10070,751,797
10075,740,792
10080,739,791
10085,741,793
10090,746,788
10095,746,787
10100,743,780
10105,753,776
10110,757,777
10115,756,777
10120,760,768
10125,760,763
10130,767,764
10135,760,757
10140,785,754
10145,783,755
10150,792,750
10155,798,754
10160,798,737
10165,802,740
10170,816,738
10175,827,736
10180,838,729
10185,836,725
10190,853,719
10195,861,721
10200,873,715
10205,877,715
10210,886,713
10215,901,711
10220,899,706
10225,921,705
10230,923,704
10235,940,703
10240,950,701
10245,967,697
10250,968,706
10255,983,697
10260,987,697
10265,993,691
10270,1009,696
10275,1016,695
10280,1027,701
10285,1040,691
10290,1039,695
10295,1058,693
10300,1067,695
10305,1069,700
10310,1080,701
10315,1082,696
10320,1093,701
10325,1106,706
10330,1117,706
10335,1119,705
10340,1127,712
10345,1132,713
10350,1144,714
10355,1154,713
10360,1143,717
10365,1149,718
10370,1162,714
10375,1170,726
10380,1166,731
10385,1171,738
10390,1164,743
10395,1177,743
10400,1175,743
10405,1187,744
10410,1182,753
10415,1183,753
10420,1189,764
10425,1185,765
10430,1182,770
10435,1184,774
10440,1187,779
10445,1193,782
10450,1186,787
10455,1175,788
10460,1181,792
10465,1189,800
10470,1177,803
10475,1178,808
10480,1178,809
10485,1181,818
10490,1169,821
10495,1172,824
10500,1178,826
10505,1173,833
10510,1155,831
10515,1168,841
10520,1156,843
10525,1152,847
10530,1157,848
10535,1156,854
10540,1144,858
10545,1154,855
10550,1143,859
10555,1138,858
10560,1141,865
10565,1128,866
10570,1129,867
10575,1123,870
10580,1120,866
10585,1119,872
10590,1119,874
10595,1116,875
10600,1117,874
10605,1116,877
10610,1114,876
10615,1108,876
10620,1101,873
10625,1102,877
10630,1096,881
10635,1109,877
10640,1096,881
10645,1087,878
10650,1097,880
10655,1088,877
10660,1099,875
10665,1091,876
10670,1083,875
10675,1085,876
10680,1085,869
10685,1084,872
10690,1077,870
10695,1069,866
10700,1075,872
10705,1072,872
10710,1065,868
10715,1062,865
10720,1066,866
10725,1064,866
10730,1063,857
10735,1053,862
10740,1061,860
10745,1046,861
10750,1046,852
10755,1038,854
10760,1034,855
10765,1025,850
10770,1034,851
10775,1025,853
10780,1020,852
10785,1015,855
10790,1009,850
10795,1010,851
10800,991,848
10805,995,844
10810,977,849
10815,982,847
10820,972,845
10825,968,840
10830,968,842
10835,963,842
10840,956,842
10845,941,841
10850,931,841
10855,934,835
10860,924,836
10865,905,834
10870,906,836
10875,891,831
10880,884,834
10885,878,836
10890,874,831
10895,879,831
10900,857,833
10905,857,826
10910,847,826
10915,826,826
10920,836,828
10925,822,819
10930,808,825
10935,809,821
10940,795,820
10945,796,814
10950,785,819
10955,776,816
10960,776,816
10965,777,816
10970,768,811
10975,757,807
10980,755,803
10985,764,805
10990,754,797
10995,749,802
11000,749,797
11005,744,801
11010,754,793
11015,746,791
11020,748,790
11025,751,784
11030,753,784
11035,747,778
11040,748,771
11045,754,774
11050,760,773
11055,766,770
11060,753,765
11065,774,762
11070,775,758
11075,772,748
11080,777,751
11085,782,745
11090,789,744
11095,800,739
11100,811,738
11105,810,740
11110,811,736
11115,827,734
11120,848,727
11125,844,727
11130,855,726
11135,860,723
11140,880,713
11145,887,714
11150,895,706
11155,906,712
11160,919,711
11165,925,704
11170,930,700
11175,945,710
11180,956,700
11185,967,699
11190,979,698
11195,990,698
11200,993,695
11205,1009,697
11210,1008,693
11215,1030,701
11220,1037,696
11225,1047,693
11230,1062,695
11235,1066,696
11240,1068,700
11245,1074,692
11250,1086,699
11255,1090,702
11260,1110,697
11265,1118,705
11270,1116,702
11275,1124,702
11280,1138,711
11285,1143,717
11290,1143,718
11295,1149,715
11300,1161,720
11305,1161,720
11310,1160,732
11315,1170,724
11320,1172,735
11325,1171,736
11330,1186,744
11335,1181,745
11340,1183,747
11345,1183,748
11350,1188,760
11355,1187,753
11360,1195,763
11365,1180,772
11370,1183,776
11375,1180,780
11380,1197,781
11385,1190,790
11390,1178,792
11395,1185,800
11400,1187,803
11405,1193,802
11410,1177,810
11415,1175,812
11420,1166,818
11425,1176,821
11430,1174,828
11435,1170,828
11440,1167,828
11445,1158,834
11450,1162,844
11455,1160,837
11460,1165,851
11465,1144,847
11470,1149,855
11475,1144,855
11480,1137,860
11485,1138,851
11490,1144,856
11495,1126,871
11500,1133,864
11505,1131,871
11510,1128,867
11515,1117,872
11520,1118,869
11525,1111,876
11530,1116,873
11535,1112,872
11540,1110,874
11545,1103,872
11550,1098,878
11555,1114,879
11560,1106,876
11565,1092,873
11570,1096,876
11575,1099,878
11580,1095,867
11585,1093,875
11590,1093,876
11595,1090,873
11600,1088,875
11605,1097,880
11610,1092,875
11615,1087,878
11620,1084,868
11625,1079,870
11630,1074,869
11635,1074,874
11640,1069,874
11645,1075,873
11650,1061,864
11655,1061,866
11660,1067,866
11665,1058,860
11670,1053,859
11675,1047,859
11680,1045,859
11685,1052,863
11690,1045,853
11695,1039,850
11700,1039,852
11705,1037,851
11710,1033,853
11715,1017,849
11720,1022,859
11725,1000,849
11730,1007,850
11735,993,844
11740,1002,853
11745,992,846
11750,982,844
11755,976,845
11760,963,840
11765,961,839
11770,955,836
11775,947,845
11780,942,842
11785,930,837
11790,929,840
11795,919,841
11800,920,839
11805,900,838
11810,902,837
11815,889,835
11820,878,835
11825,872,829
11830,857,831
11835,848,835
11840,853,830
11845,843,828
11850,844,828
11855,829,820
11860,829,832
11865,825,825
11870,805,823
11875,796,825
11880,802,817
11885,797,817
11890,786,815
11895,786,817
11900,776,806
11905,776,817
11910,763,808
11915,758,814
11920,752,804
11925,754,801
11930,751,800
11935,755,796
11940,753,798
11945,746,794
11950,747,790
11955,746,792
11960,747,788
11965,744,781
11970,758,785
11975,756,781
11980,756,775
11985,753,774
11990,760,772
11995,764,763
12000,759,762
12005,771,753
12010,778,756
12015,784,751
12020,785,749
12025,781,743
12030,789,744
12035,814,743
12040,808,738
12045,825,734
12050,841,731
12055,844,731
12060,843,727
12065,857,719
12070,872,719
12075,878,717
12080,884,713
12085,891,713
12090,894,714
12095,914,705
12100,916,704
12105,928,708
12110,941,699
12115,953,702
12120,967,701
12125,968,705
12130,985,703
12135,994,701
12140,1000,696
12145,1016,694
12150,1024,695
12155,1032,692
12160,1048,697
12165,1055,696
12170,1059,699
12175,1071,695
12180,1079,694
12185,1084,693
12190,1099,701
12195,1100,706
12200,1119,703
12205,1110,704
12210,1122,710
12215,1136,712
12220,1137,711
12225,1145,715
12230,1154,718
12235,1152,722
12240,1158,726
12245,1161,730
12250,1169,731
12255,1167,737
12260,1174,739
12265,1187,741
12270,1175,743
12275,1175,747
12280,1193,751
12285,1183,758
12290,1182,765
12295,1179,769
12300,1190,766
12305,1193,774
12310,1190,774
12315,1181,784
12320,1185,781
12325,1186,789
12330,1187,796
12335,1181,803
12340,1188,801
12345,1184,808
12350,1177,814
12355,1177,814
12360,1167,819
12365,1161,824
12370,1164,825
12375,1165,832
12380,1166,836
12385,1165,838
12390,1153,843
12395,1148,850
12400,1164,848
12405,1147,854
12410,1146,851
12415,1134,857
12420,1133,864
12425,1146,859
12430,1150,865
12435,1125,867
12440,1124,866
12445,1126,870
12450,1137,868
12455,1124,872
12460,1112,872
12465,1128,877
12470,1114,870
12475,1111,881
12480,1107,880
12485,1111,880
12490,1106,875
12495,1102,878
12500,1106,880
12505,1104,876
12510,1102,880
12515,1103,876
12520,1106,876
12525,1098,879
12530,1083,876
12535,1089,876
12540,1089,874
12545,1074,877
12550,1089,873
12555,1082,874
12560,1074,867
12565,1075,870
12570,1071,868
12575,1073,864
12580,1075,865
12585,1073,865
12590,1073,863
12595,1052,865
12600,1055,872
12605,1056,856
12610,1050,857
12615,1053,857
12620,1044,859
12625,1040,861
12630,1039,856
12635,1034,852
12640,1036,854
12645,1035,854
12650,1024,853
12655,1014,846
12660,1006,848
12665,1005,850
12670,1008,850
12675,994,844
12680,990,847
12685,980,843
12690,976,845
12695,969,838
12700,960,845
12705,959,837
12710,945,841
12715,940,834
12720,928,841
12725,925,837
12730,916,839
12735,908,836
12740,907,834
12745,893,834
12750,879,835
12755,874,834
12760,870,830
12765,861,834
12770,857,830
12775,850,829
12780,848,832
12785,835,831
12790,833,828
12795,818,825
12800,818,823
12805,811,826
12810,809,820
12815,800,820
12820,781,824
12825,785,821
12830,788,812
12835,783,814
12840,776,809
12845,769,810
12850,767,808
12855,758,808
12860,753,804
12865,754,803
12870,758,799
12875,748,791
12880,748,795
12885,754,785
12890,750,790
12895,755,780
12900,747,781
12905,746,781
12910,747,773
12915,755,778
12920,764,773
12925,760,772
12930,765,771
12935,768,762
12940,773,756
12945,778,749
12950,780,757
12955,786,748
12960,794,740
12965,807,736
12970,806,732
12975,813,740
12980,831,736
12985,828,736
12990,834,725
12995,844,729
13000,857,719
13005,866,721
13010,875,722
13015,898,713
13020,895,714
13025,893,709
13030,913,708
13035,926,703
13040,931,701
13045,951,703
13050,952,696
13055,971,700
13060,979,700
13065,982,699
13070,987,692
13075,1003,699
13080,1011,698
13085,1022,696
13090,1035,694
13095,1046,701
13100,1061,695
13105,1056,692
13110,1066,696
13115,1071,696
13120,1092,700
13125,1096,698
13130,1103,702
13135,1106,704
13140,1117,710
13145,1131,707
13150,1131,702
13155,1137,715
13160,1149,711
13165,1157,722
13170,1159,720
13175,1176,728
13180,1160,729
13185,1153,727
13190,1174,735
13195,1179,740
13200,1190,740
13205,1174,747
13210,1182,747
13215,1194,751
13220,1187,756
13225,1187,762
13230,1186,763
13235,1181,771
13240,1188,773
13245,1186,779
13250,1184,781
13255,1189,784
13260,1187,796
13265,1193,791
13270,1187,802
13275,1175,804
13280,1176,808
13285,1176,812
13290,1172,817
13295,1172,816
13300,1178,827
13305,1170,828
13310,1166,832
13315,1159,834
13320,1167,833
13325,1165,841
13330,1153,848
13335,1158,845
13340,1149,852
13345,1151,850
13350,1144,862
13355,1139,854
13360,1135,863
13365,1126,861
13370,1134,867
13375,1121,866
13380,1124,868
13385,1122,872
13390,1130,869
13395,1126,865
13400,1118,877
13405,1117,870
13410,1111,877
13415,1106,874
13420,1111,878
13425,1112,876
13430,1117,880
13435,1096,879
13440,1097,877
13445,1099,879
13450,1094,882
13455,1097,877
13460,1088,872
13465,1089,880
13470,1089,874
13475,1091,873
13480,1084,877
13485,1082,871
13490,1083,875
13495,1080,871
13500,1083,869
13505,1080,869
13510,1063,867
13515,1071,862
13520,1066,866
13525,1065,861
13530,1072,860
13535,1057,862
13540,1052,864
13545,1058,860
13550,1052,856
13555,1043,858
13560,1038,859
13565,1036,855
13570,1040,856
13575,1023,856
13580,1027,856
13585,1025,852
13590,1017,853
13595,1002,848
13600,1009,842
13605,992,850
13610,1000,850
13615,993,850
13620,983,849
13625,970,844
13630,982,844
13635,955,842
13640,957,844
13645,943,843
13650,943,846
13655,943,844
13660,923,838
13665,921,839
13670,916,835
13675,908,835
13680,898,837
13685,889,835
13690,890,834
13695,874,828
13700,868,832
13705,859,830
13710,848,829
13715,842,828
13720,832,830
13725,827,825
13730,824,825
13735,813,823
13740,812,818
13745,803,821
13750,798,820
13755,790,821
13760,783,817
13765,780,818
13770,776,809
13775,779,811
13780,773,811
13785,759,810
13790,758,805
13795,757,809
13800,760,801
13805,743,795
13810,746,798
13815,747,794
13820,749,786
13825,744,784
13830,745,787
13835,747,785
13840,744,777
13845,753,775
13850,754,775
13855,757,770
13860,764,770
13865,764,763
13870,765,760
13875,770,752
13880,770,756
13885,779,756
13890,787,751
13895,788,741
13900,795,741
13905,811,740
13910,813,737
13915,815,736
13920,827,734
13925,839,727
13930,850,728
13935,857,728
13940,866,717
13945,879,721
13950,870,716
13955,903,711
13960,902,714
13965,914,703
13970,924,706
13975,938,703
13980,942,701
13985,960,707
13990,964,695
13995,976,699
14000,982,699
14005,1005,701
14010,1013,699
14015,1021,692
14020,1033,688
14025,1042,696
14030,1043,692
14035,1050,695
14040,1067,694
14045,1060,694
14050,1085,698
14055,1086,698
14060,1091,701
14065,1103,704
14070,1120,700
14075,1117,704
14080,1131,708
14085,1136,712
14090,1137,708
14095,1147,723
14100,1153,715
14105,1152,718
14110,1156,726
14115,1160,728
14120,1172,733
14125,1177,728
14130,1173,737
14135,1184,743
14140,1171,743
14145,1197,750
14150,1174,751
14155,1188,759
14160,1190,759
14165,1190,764
14170,1191,775
14175,1191,769
14180,1186,776
14185,1185,781
14190,1191,780
14195,1188,793
14200,1184,795
14205,1189,794
14210,1177,804
14215,1183,808
14220,1178,815
14225,1175,814
14230,1170,820
14235,1174,823
14240,1166,832
14245,1173,833
14250,1157,834
14255,1158,842
14260,1160,843
14265,1152,847
14270,1151,849
14275,1151,850
14280,1143,858
14285,1145,853
14290,1142,859
14295,1135,861
14300,1136,862
14305,1136,865
14310,1138,870
14315,1135,865
14320,1124,872
14325,1114,869
14330,1118,879
14335,1116,872
14340,1119,873
14345,1115,881
14350,1105,880
14355,1104,876
14360,1106,878
14365,1102,874
14370,1094,872
14375,1095,877
14380,1093,877
14385,1099,880
14390,1097,875
14395,1087,871
14400,1091,878
14405,1085,875
14410,1088,881
14415,1079,872
14420,1087,870
14425,1086,864
14430,1085,872
14435,1086,872
14440,1068,869
14445,1078,869
14450,1082,867
14455,1076,864
14460,1067,865
14465,1069,863
14470,1056,859
14475,1057,859
14480,1058,857
14485,1052,857
14490,1051,857
14495,1048,851
14500,1053,864
14505,1042,853
14510,1032,853
14515,1026,857
14520,1018,850
14525,1017,853
14530,1008,856
14535,1011,847
14540,1008,843
14545,995,848
14550,985,841
14555,983,848
14560,981,843
14565,969,845
14570,951,841
14575,958,842
14580,950,840
14585,951,835
14590,930,842
14595,926,837
14600,915,835
14605,913,832
14610,904,842
14615,905,834
14620,891,831
14625,892,836
14630,884,830
14635,871,831
14640,863,832
14645,847,835
14650,842,829
14655,836,826
14660,827,827
14665,817,823
14670,821,824
14675,801,822
14680,806,822
14685,795,816
14690,794,817
14695,792,824
14700,790,814
14705,780,815
14710,780,812
14715,771,807
14720,762,804
14725,758,807
14730,748,802
14735,759,805
14740,754,809
14745,745,795
14750,743,793
14755,755,791
14760,747,783
14765,747,788
14770,753,786
14775,746,783
14780,746,777
14785,749,772
14790,753,768
14795,763,765
14800,766,767
14805,767,761
14810,770,758
14815,768,755
14820,775,750
14825,788,749
14830,792,746
14835,805,748
14840,799,742
14845,806,731
14850,818,737
14855,831,730
14860,838,725
14865,845,723
14870,866,722
14875,858,722
14880,878,717
14885,885,717
14890,888,712
14895,904,707
14900,912,713
14905,925,706
14910,934,707
14915,939,702
14920,954,703
14925,968,699
14930,975,696
14935,986,698
14940,995,698
14945,1010,700
14950,1014,698
14955,1026,692
14960,1042,699
14965,1041,694
14970,1053,695
14975,1059,699
14980,1072,703
14985,1073,704
14990,1080,702
14995,1095,700
15000,1111,704
15005,1107,700
15010,1117,702
15015,1128,703
15020,1136,709
15025,1146,707
15030,1143,714
15035,1146,722
15040,1158,723
15045,1149,727
15050,1160,730
15055,1168,727
15060,1175,735
15065,1177,736
15070,1177,732
15075,1177,747
15080,1188,748
15085,1188,751
15090,1192,755
15095,1177,763
15100,1194,763
15105,1186,769
15110,1191,772
15115,1190,778
15120,1195,782
15125,1193,789
15130,1178,795
15135,1182,797
15140,1189,802
15145,1181,804
15150,1175,805
15155,1179,813
15160,1170,816
15165,1169,821
15170,1171,822
15175,1178,829
15180,1163,830
15185,1167,838
15190,1158,832
15195,1162,840
15200,1151,844
15205,1160,856
15210,1144,855
15215,1148,855
15220,1145,856
15225,1136,860
15230,1133,866
15235,1139,866
15240,1135,862
15245,1124,868
15250,1127,868
15255,1126,867
15260,1125,872
15265,1119,871
15270,1116,872
15275,1122,872
15280,1116,876
15285,1119,876
15290,1110,875
15295,1103,879
15300,1108,879
15305,1103,884
15310,1105,884
15315,1100,881
15320,1104,875
15325,1095,879
15330,1092,874
15335,1093,872
15340,1091,876
15345,1088,873
15350,1079,871
15355,1077,874
15360,1081,870
15365,1080,869
15370,1070,865
15375,1070,868
15380,1086,871
15385,1073,868
15390,1069,864
15395,1070,867
15400,1065,862
15405,1063,864
15410,1056,864
15415,1057,860
15420,1048,863
15425,1046,861
15430,1039,851
15435,1042,856
15440,1036,855
15445,1024,853
15450,1030,850
15455,1025,846
15460,1012,850
15465,1001,850
15470,998,850
15475,983,851
15480,995,850
15485,986,847
15490,973,847
15495,977,845
15500,967,842
15505,956,834
15510,961,846
15515,951,837
15520,939,844
15525,937,838
15530,935,840
15535,924,837
15540,914,837
15545,908,838
15550,895,836
15555,890,834
15560,878,836
15565,875,833
15570,864,834
15575,856,834
15580,848,836
15585,839,829
15590,844,830
15595,824,829
15600,823,832
15605,822,826
15610,809,827
15615,801,818
15620,794,823
15625,793,818
15630,784,813
15635,781,814
15640,783,816
15645,777,813
15650,766,814
15655,759,807
15660,752,808
15665,757,800
15670,760,798
15675,749,799
15680,754,796
15685,744,798
15690,747,792
15695,748,791
15700,741,788
15705,749,783
15710,744,782
15715,744,782
15720,753,771
15725,757,768
15730,760,769
15735,758,764
15740,767,757
15745,756,761
15750,781,758
15755,786,753
15760,787,750
15765,797,747
15770,786,745
15775,806,739
15780,813,741
15785,823,739
15790,830,733
15795,829,730
15800,848,724
15805,852,721
15810,872,724
15815,873,718
15820,869,715
15825,892,712
15830,908,709
15835,910,706
15840,920,707
15845,933,702
15850,943,706
15855,950,703
15860,973,698
15865,967,698
15870,982,696
15875,995,698
15880,999,693
15885,1023,698
15890,1022,692
15895,1039,696
15900,1034,692
15905,1058,697
15910,1060,693
15915,1072,697
15920,1085,702
15925,1087,697
15930,1097,700
15935,1105,700
15940,1108,704
15945,1119,706
15950,1127,708
15955,1138,717
15960,1138,711
15965,1146,716
15970,1146,718
15975,1154,722
15980,1165,726
15985,1159,728
15990,1172,731
15995,1168,732
16000,1177,737
16004,1178,742
16010,1183,744
16015,1192,749
16020,1177,753
16024,1185,757
16030,1177,760
16035,1182,763
16040,1186,771
16045,1189,771
16050,1182,778
16055,1189,782
16059,1186,787
16065,1198,783
16070,1181,799
16075,1184,792
16079,1191,801
16085,1181,804
16090,1171,811
16094,1184,812
16100,1173,821
16105,1164,819
16110,1171,824
16114,1166,840
16120,1158,837
16125,1151,837
16129,1160,842
16135,1157,839
16140,1150,848
16145,1148,845
16149,1143,852
16155,1146,856
16160,1145,861
16165,1132,853
16170,1135,859
16175,1138,862
16180,1129,862
16184,1124,867
16190,1128,870
16195,1125,873
16200,1116,869
16204,1117,876
16210,1120,873
16215,1117,872
16219,1111,877
16225,1104,879
16230,1105,874
16235,1109,875
16239,1107,877
16245,1103,878
16250,1106,876
16254,1096,875
16260,1089,873
16265,1092,874
16270,1096,883
16274,1095,875
16280,1098,876
16285,1092,872
16290,1082,873
16295,1086,874
16300,1079,869
16305,1078,868
16309,1076,868
16315,1084,867
16320,1071,866
16325,1069,865
16329,1063,865
16335,1064,864
16340,1062,865
16344,1058,861
16350,1053,866
16355,1046,864
16360,1045,859
16364,1044,854
16370,1034,853
16375,1040,851
16379,1036,845
16385,1032,856
16390,1029,849
16395,1013,847
16400,1020,844
16405,999,848
16410,1002,848
16415,993,852
16420,990,847
16425,982,844
16430,970,848
16435,971,841
16440,960,840
16445,951,844
16450,952,842
16455,939,837
16460,937,835
16465,924,835
16470,922,833
16475,918,839
16480,908,836
16485,896,835
16490,883,836
16495,891,834
16500,871,837
16505,870,833
16510,856,830
16515,854,832
16520,839,824
16525,837,826
16530,835,830
16535,826,823
16540,818,823
16545,813,823
16550,801,825
16555,806,827
16560,781,825
16565,791,821
16570,780,815
16575,787,813
16580,772,806
16585,762,811
16590,762,802
16595,762,801
16600,756,800
16605,755,803
16610,750,797
16615,749,800
16620,750,800
16625,743,793
16630,754,783
16635,745,789
16640,753,785
16645,762,785
16650,755,781
16655,751,777
16660,758,774
16665,763,775
16670,759,763
16675,772,766
16680,766,758
16685,768,755
16690,779,752
16695,787,746
16700,789,748
16705,797,738
16710,802,743
16715,811,740
16720,812,729
16725,830,732
16730,836,730
16735,848,727
16740,852,719
16745,857,721
16750,867,719
16755,885,714
16760,890,711
16765,899,708
16770,921,711
16775,927,709
16780,935,703
16785,928,698
16790,959,697
16795,967,699
16800,972,701
16805,998,699
16810,989,693
16815,1007,695
16820,1008,694
16825,1025,697
16830,1034,695
16835,1042,699
16840,1049,694
16845,1064,694
16850,1076,700
16855,1069,697
16860,1091,697
16865,1098,703
16870,1103,692
16875,1109,704
16880,1119,701
16885,1129,702
16890,1128,705
16895,1139,713
16900,1142,716
16905,1149,713
16910,1156,714
16915,1163,722
16920,1166,727
16925,1178,728
16930,1167,731
16935,1177,742
16940,1168,734
16945,1177,742
16950,1179,746
16955,1182,755
16960,1186,753
16965,1192,767
16970,1179,764
16975,1181,764
16980,1187,773
16985,1181,772
16990,1190,783
16995,1187,790
17000,1190,792
17005,1187,795
17010,1200,798
17015,1191,801
17020,1185,809
17025,1183,813
17030,1163,817
17035,1173,817
17040,1174,822
17045,1160,824
17050,1167,832
17055,1154,833
17060,1159,837
17065,1163,841
17070,1153,848
17075,1151,853
17080,1146,843
17085,1134,855
17090,1147,852
17095,1146,860
17100,1143,861
17105,1136,863
17110,1131,868
17115,1131,863
17120,1125,872
17125,1122,868
17130,1124,867
17135,1110,872
17140,1117,878
17145,1115,872
17150,1113,868
17155,1114,876
17160,1106,876
17165,1112,877
17170,1109,874
17175,1105,881
17180,1102,876
17185,1097,877
17190,1098,876
17195,1097,874
17200,1088,875
17205,1084,881
17210,1094,877
17215,1092,875
17220,1093,875
17225,1082,873
17230,1082,874
17235,1083,866
17240,1072,870
17245,1071,871
17250,1072,864
17255,1073,867
17260,1074,867
17265,1075,861
17270,1062,869
17275,1069,861
17280,1063,864
17285,1055,856
17290,1055,857
17295,1047,860
17300,1036,855
17305,1038,853
17310,1036,856
17315,1028,854
17320,1021,853
17325,1032,850
17330,1015,845
17335,1021,847
17340,1013,853
17345,1000,845
17350,995,846
17355,987,848
17360,983,844
17365,979,841
17370,968,841
17375,958,842
17380,955,841
17385,948,839
17390,940,841
17395,935,835
17400,925,838
17405,916,830
17410,911,833
17415,911,837
17420,893,841
17425,892,838
17430,883,837
17435,872,831
17440,861,832
17445,856,829
17450,858,831
17455,840,823
17460,840,829
17465,834,823
17470,829,824
17475,822,824
17480,817,827
17485,794,819
17490,797,814
17495,786,816
17500,788,812
17505,777,811
17510,774,812
17515,766,814
17520,775,811
17525,760,808
17530,758,802
17535,751,805
17540,759,801
17545,747,797
17550,748,795
17555,747,796
17560,755,796
17565,754,790
17570,750,784
17575,745,783
17580,749,778
17585,753,780
17590,760,770
17595,758,769
17600,758,772
17605,760,764
17610,769,759
17615,764,758
17620,775,757
17625,773,755
17630,782,753
17635,794,748
17640,795,740
17645,806,743
17650,807,736
17655,812,733
17660,830,734
17665,842,733
17670,831,726
17675,858,721
17680,855,719
17685,864,720
17690,874,710
17695,884,714
17700,904,707
17705,914,710
17710,927,706
17715,932,699
17720,940,701
17725,953,704
17730,964,697
17735,964,697
17740,990,699
17745,1003,700
17750,1003,689
17755,1006,697
17760,1024,695
17765,1034,692
17770,1046,697
17775,1051,693
17780,1057,696
17785,1079,694
17790,1079,700
17795,1086,692
17800,1094,702
17805,1095,699
17810,1115,704
17815,1126,707
17820,1132,706
17825,1131,714
17830,1143,715
17835,1148,718
17840,1149,722
17845,1157,723
17850,1158,716
17855,1164,728
17860,1170,729
17865,1167,729
17870,1180,734
17875,1174,741
17880,1183,746
17885,1184,750
17890,1184,753
17895,1176,756
17900,1175,763
17905,1187,770
17910,1195,769
17915,1197,772
17920,1190,771
17925,1190,778
17930,1178,781
17935,1187,789
17940,1189,801
17945,1192,802
17950,1180,807
17955,1177,811
17960,1177,810
17965,1168,810
17970,1173,821
17975,1174,822
17980,1167,826
17985,1170,829
17990,1168,832
17995,1160,834
18000,1156,848
18005,1155,845
18010,1149,849
18015,1155,854
18020,1152,854
18025,1148,855
18030,1151,855
18035,1144,858
18040,1139,857
18045,1127,864
18050,1130,864
18055,1127,866
18060,1123,869
18065,1122,872
18070,1115,872
18075,1120,873
18080,1110,874
18085,1110,871
18090,1110,879
18095,1100,875
18100,1104,879
18105,1110,881
18110,1097,877
18115,1105,880
18120,1104,874
18125,1103,879
18130,1104,877
18135,1095,873
18140,1095,873
18145,1088,875
18150,1088,875
18155,1089,879
18160,1081,868
18165,1086,869
18170,1081,874
18175,1084,869
18180,1073,873
18185,1076,866
18190,1068,867
18195,1065,863
18200,1058,869
18205,1056,864
18210,1057,865
18215,1063,863
18220,1061,857
18225,1050,862
18230,1052,859
18235,1045,855
18240,1038,855
18245,1033,849
18250,1037,852
18255,1023,851
18260,1015,851
18265,1013,853
18270,1013,846
18275,1018,847
18280,1005,846
18285,994,844
18290,996,845
18295,982,849
18300,981,850
18305,967,844
18310,971,842
18315,954,841
18320,953,833
18325,949,842
18330,939,842
18335,934,837
18340,919,839
18345,917,832
18350,907,835
18355,901,834
18360,892,832
18365,878,830
18370,873,835
18375,864,830
18380,862,831
18385,858,832
18390,852,832
18395,832,833
18400,835,829
18405,822,822
18410,821,823
18415,809,823
18420,801,822
18425,794,823
18430,790,820
18435,782,818
18440,783,814
18445,782,816
18450,771,810
18455,765,812
18460,767,806
18465,756,802
18470,763,802
18475,751,804
18480,754,798
18485,755,801
18490,751,795
18495,740,790
18500,746,792
18505,753,787
18510,744,789
18515,745,784
18520,753,776
18525,756,776
18530,758,769
18535,760,766
18540,757,772
18545,765,766
18550,768,762
18555,773,758
18560,779,752
18565,774,750
18570,785,743
18575,803,742
18580,795,739
18585,809,737
18590,814,736
18595,823,733
18600,844,729
18605,842,727
18610,849,724
18615,864,716
18620,873,717
18625,880,710
18630,889,705
18635,898,708
18640,900,706
18645,922,702
18650,931,707
18655,934,708
18660,955,702
18665,967,698
18670,971,700
18675,976,693
18680,990,693
18685,1009,695
18690,1009,698
18695,1024,700
18700,1032,691
18705,1035,694
18710,1051,693
18715,1056,694
18720,1074,698
18725,1087,694
18730,1102,701
18735,1101,701
18740,1098,699
18745,1109,700
18750,1124,699
18755,1130,709
18760,1138,712
18765,1144,710
18770,1145,710
18775,1149,721
18780,1161,722
18785,1161,720
18790,1168,729
18795,1171,725
18800,1172,730
18805,1171,732
18810,1180,741
18815,1180,749
18820,1183,744
18825,1184,757
18830,1187,752
18835,1188,763
18840,1189,759
18845,1201,769
18850,1186,767
18855,1191,778
18860,1185,780
18865,1183,792
18870,1189,792
18875,1187,790
18880,1180,800
18885,1186,803
18890,1176,802
18895,1177,808
18900,1184,812
18905,1177,823
18910,1163,824
18915,1173,829
18920,1163,831
18925,1159,838
18930,1165,838
18935,1169,842
18940,1153,843
18945,1152,847
18950,1153,850
18955,1148,851
18960,1134,849
18965,1147,858
18970,1141,859
18975,1136,862
18980,1131,864
18985,1139,870
18990,1128,873
18995,1123,868
19000,1117,872
19005,1130,872
19010,1120,870
19015,1123,874
19020,1098,876
19025,1107,883
19030,1108,877
19035,1103,877
19040,1105,877
19045,1097,872
19050,1106,882
19055,1094,877
19060,1094,875
19065,1101,875
19070,1101,878
19075,1083,875
19080,1099,877
19085,1084,875
19090,1093,877
19095,1084,869
19100,1081,874
19105,1081,870
19110,1084,875
19115,1076,865
19120,1072,870
19125,1075,866
19130,1063,863
19135,1061,868
19140,1061,859
19145,1070,865
19150,1053,859
19155,1064,862
19160,1063,856
19165,1053,858
19170,1035,856
19175,1035,851
19180,1033,851
19185,1027,856
19190,1029,852
19195,1018,854
19200,1008,850
19205,1009,852
19210,1008,853
19215,998,848
19220,1006,846
19225,988,842
19230,983,844
19235,968,842
19240,978,847
19245,969,843
19250,960,842
19255,952,839
19260,949,843
19265,940,840
19270,930,836
19275,924,838
19280,925,836
19285,920,833
19290,901,836
19295,898,834
19300,887,830
19305,870,841
19310,857,830
19315,864,826
19320,848,827
19325,845,824
19330,838,828
19335,834,829
19340,826,826
19345,820,823
19350,810,825
19355,806,822
19360,805,820
19365,794,817
19370,787,819
19375,774,810
19380,776,811
19385,770,809
19390,769,811
19395,757,809
19400,759,804
19405,754,809
19410,754,805
19415,759,801
19420,745,792
19425,756,793
19430,745,789
19435,746,792
19440,750,788
19445,749,784
19450,746,781
19455,754,774
19460,755,777
19465,758,767
19470,758,764
19475,757,768
19480,769,764
19485,762,758
19490,771,754
19495,780,757
19500,782,752
19505,787,748
19510,786,750
19515,802,741
19520,821,740
19525,821,735
19530,817,731
19535,838,732
19540,851,720
19545,846,719
19550,860,721
19555,869,720
19560,877,716
19565,875,710
19570,895,709
19575,919,710
19580,923,708
19585,936,702
19590,941,701
19595,956,698
19600,966,703
19605,965,701
19610,973,701
19615,992,699
19620,1004,699
19625,1019,700
19630,1009,699
19635,1029,696
19640,1042,698
19645,1051,695
19650,1067,696
19655,1072,693
19660,1072,698
19665,1091,690
19670,1101,700
19675,1101,706
19680,1115,705
19685,1123,703
19690,1130,704
19695,1129,707
19700,1139,712
19705,1153,715
19710,1150,716
19715,1151,726
19720,1157,720
19725,1164,723
19730,1182,728
19735,1173,732
19740,1175,735
19745,1182,738
19750,1187,749
19755,1177,749
19760,1184,751
19765,1201,755
19770,1190,767
19775,1181,762
19780,1178,769
19785,1179,773
19790,1191,779
19795,1185,779
19800,1192,792
19805,1182,782
19810,1185,795
19815,1183,791
19820,1187,797
19825,1175,803
19830,1176,811
19835,1180,811
19840,1170,820
19845,1178,822
19850,1174,827
19855,1171,833
19860,1156,828
19865,1158,835
19870,1154,844
19875,1163,847
19880,1161,844
19885,1150,848
19890,1145,858
19895,1141,859
19900,1138,853
19905,1137,861
19910,1130,863
19915,1125,866
19920,1121,868
19925,1129,873
19930,1123,876
19935,1130,866
19940,1112,874
19945,1122,876
19950,1115,874
19955,1126,873
19960,1115,871
19965,1103,877
19970,1113,879
19975,1100,878
19980,1111,878
19985,1089,882
19990,1095,879
19995,1094,875
20000,1100,871
20005,1101,875
20010,1094,872
20015,1091,874
20020,1087,875
20025,1085,878
20030,1083,869
20035,1086,874
20040,1078,878
20045,1078,869
20050,1084,865
20055,1080,870
20060,1071,866
20065,1078,863
20070,1066,862
20075,1055,866
20080,1059,859
20085,1049,860
20090,1060,855
20095,1050,858
20100,1047,857
20105,1047,859
20110,1029,855
20115,1037,860
20120,1033,851
20125,1030,852
20130,1028,850
20135,1027,854
20140,1009,849
20145,1001,847
20150,1012,844
20155,996,845
20160,995,847
20165,990,843
20170,973,844
20175,972,842
20180,963,843
20185,962,842
20190,958,840
20195,946,842
20200,935,834
20205,934,832
20210,915,841
20215,922,836
20220,904,838
20225,899,837
20230,894,841
20235,877,833
20240,876,836
20245,875,837
20250,863,831
20255,858,831
20260,852,832
20265,833,826
20270,837,830
20275,820,821
20280,815,825
20285,809,823
20290,797,826
20295,792,819
20300,795,818
20305,786,817
20310,780,818
20315,769,809
20320,766,814
20325,764,805
20330,765,813
20335,764,802
20340,763,803
20345,750,800
20350,753,797
20355,754,795
20360,756,797
20365,745,794
20370,758,792
20375,747,785
20380,750,779
20385,755,783
20390,755,777
20395,758,777
20400,754,776
20405,769,776
20410,762,766
20415,766,763
20420,768,762
20425,775,755
20430,785,750
20435,785,748
20440,789,747
20445,803,746
20450,798,746
20455,813,741
20460,823,732
20465,820,729
20470,831,724
20475,847,729
20480,853,727
20485,865,723
20490,872,720
20495,888,713
20500,891,715
20505,904,706
20510,915,708
20515,925,707
20520,933,706
20525,936,705
20530,944,702
20535,963,697
20540,968,696
20545,987,702
20550,992,695
20555,1003,700
20560,1015,690
20565,1020,695
20570,1031,698
20575,1039,692
20580,1041,700
20585,1049,697
20590,1067,696
20595,1073,692
20600,1090,700
20605,1097,693
20610,1105,704
20615,1115,696
20620,1122,702
20625,1120,711
20630,1129,706
20635,1122,711
20640,1139,713
20645,1149,718
20650,1160,722
20655,1154,726
20660,1163,726
20665,1166,730
20670,1165,734
20675,1165,738
20680,1179,742
20685,1179,744
20690,1179,745
20695,1184,754
20700,1193,754
20705,1182,756
20710,1186,763
20715,1190,773
20720,1191,775
20725,1183,775
20730,1192,783
20735,1186,782
20740,1179,792
20745,1179,789
20750,1177,794
20755,1186,796
20760,1178,807
20765,1173,804
20770,1171,813
20775,1173,824
20780,1167,824
20785,1175,828
20790,1160,833
20795,1165,834
20800,1167,835
20805,1166,836
20810,1159,839
20815,1162,845
20820,1146,848
20825,1149,847
20830,1142,856
20835,1139,854
20840,1134,861
20845,1124,859
20850,1127,863
20855,1131,866
20860,1121,866
20865,1127,868
20870,1121,870
20875,1127,869
20880,1112,875
20885,1112,875
20890,1121,878
20895,1114,880
20900,1107,882
20905,1114,875
20910,1108,881
20915,1108,883
20920,1110,876
20925,1087,877
20930,1102,876
20935,1095,884
20940,1089,876
20945,1092,879
20950,1085,875
20955,1090,878
20960,1081,872
20965,1089,876
20970,1086,873
20975,1079,869
20980,1076,865
20985,1076,869
20990,1083,872
20995,1076,868
21000,1075,864
21005,1069,873
21010,1066,867
21015,1061,864
21020,1064,861
21025,1052,857
21030,1045,863
21035,1043,859
21040,1047,860
21045,1038,855
21050,1036,851
21055,1032,853
21060,1026,853
21065,1027,851
21070,1021,851
21075,1017,851
21080,1000,851
21085,999,850
21090,998,851
21095,993,847
21100,981,848
21105,984,841
21110,983,837
21115,967,843
21120,955,848
21125,960,839
21130,952,836
21135,933,840
21140,926,839
21145,924,841
21150,916,836
21155,914,834
21160,903,841
21165,895,832
21170,882,835
21175,884,832
21180,865,833
21185,868,833
21190,858,827
21195,848,827
21200,826,827
21205,829,834
21210,825,824
21215,817,826
21220,817,821
21225,799,819
21230,802,820
21235,792,821
21240,791,822
21245,780,813
21250,775,816
21255,771,815
21260,773,814
21265,770,810
21270,765,809
21275,752,802
21280,749,807
21285,745,801
21290,752,800
21295,750,797
21300,753,795
21305,749,786
21310,746,781
21315,749,780
21320,751,773
21325,753,780
21330,756,776
21335,755,774
21340,750,760
21345,769,768
21350,754,765
21355,770,760
21360,773,760
21365,783,755
21370,783,755
21375,788,751
21380,788,741
21385,799,737
21390,823,739
21395,826,736
21400,829,731
21405,833,726
21410,844,730
21415,851,719
21420,862,718
21425,872,718
21430,874,717
21435,889,710
21440,904,713
21445,910,713
21450,928,705
21455,925,709
21460,939,703
21465,939,700
21470,961,701
21475,968,701
21480,983,704
21485,987,699
21490,1001,697
21495,1014,692
21500,1030,690
21505,1021,700
21510,1045,689
21515,1054,693
21520,1063,696
21525,1072,692
21530,1071,697
21535,1090,694
21540,1096,702
21545,1103,702
21550,1114,703
21555,1108,704
21560,1132,711
21565,1135,706
21570,1142,713
21575,1147,714
21580,1146,718
21585,1156,721
21590,1161,722
21595,1163,722
21600,1165,732
21605,1181,728
21610,1171,738
21615,1171,738
21620,1188,745
21625,1182,747
21630,1180,751
21635,1184,756
21640,1188,760
21645,1179,762
21650,1182,769
21655,1195,768
21660,1186,773
21665,1189,779
21670,1185,782
21675,1183,792
21680,1184,794
21685,1180,794
21690,1186,799
21695,1182,806
21700,1180,806
21705,1177,817
21710,1174,818
21715,1170,817
21720,1172,823
21725,1174,829
21730,1160,836
21735,1162,839
21740,1160,839
21745,1150,846
21750,1157,844
21755,1145,849
21760,1141,855
21765,1142,854
21770,1140,856
21775,1144,861
21780,1134,858
21785,1125,863
21790,1129,873
21795,1126,869
21800,1119,872
21805,1117,870
21810,1128,875
21815,1122,875
21820,1116,878
21825,1111,876
21830,1117,878
21835,1112,878
21840,1109,874
21845,1115,883
21850,1107,871
21855,1101,872
21860,1108,875
21865,1100,874
21870,1096,877
21875,1094,878
21880,1084,872
21885,1091,872
21890,1093,869
21895,1082,875
21900,1082,867
21905,1091,871
21910,1079,871
21915,1084,870
21920,1076,873
21925,1070,869
21930,1072,867
21935,1067,862
21940,1061,874
21945,1061,862
21950,1064,858
21955,1055,859
21960,1051,865
21965,1046,859
21970,1043,857
21975,1042,858
21980,1041,857
21985,1032,854
21990,1028,852
21995,1035,850
22000,1026,846
22005,1026,853
22010,1013,853
22015,1013,852
22020,996,849
22025,1006,844
22030,990,845
22035,987,844
22040,974,847
22045,970,840
22050,971,840
22055,961,842
22060,947,839
22065,943,840
22070,939,836
22075,927,841
22080,923,842
22085,914,835
22090,905,838
22095,903,834
22100,893,836
22105,883,835
22110,883,831
22115,869,831
22120,854,832
22125,854,829
22130,850,833
22135,832,832
22140,844,833
22145,825,827
22150,808,823
22155,807,826
22160,795,825
22165,801,820
22170,798,825
22175,788,820
22180,776,817
22185,778,816
22190,772,810
22195,776,818
22200,765,811
22205,766,809
22210,763,808
22215,751,806
22220,755,797
22225,742,797
22230,738,798
22235,746,790
22240,747,792
22245,749,792
22250,750,780
22255,752,782
22260,753,779
22265,759,773
22270,758,772
22275,753,771
22280,769,771
22285,758,764
22290,757,758
22295,772,753
22300,789,755
22305,787,754
22310,787,749
22315,805,744
22320,807,742
22325,811,741
22330,818,734
22335,829,734
22340,833,730
22345,849,723
22350,855,723
22355,856,726
22360,870,711
22365,883,713
22370,886,720
22375,906,717
22380,912,705
22385,917,705
22390,928,703
22395,941,705
22400,941,701
22405,964,703
22410,965,699
22415,981,700
22420,1003,698
22425,1000,695
22430,1010,696
22435,1016,698
22440,1034,693
22445,1041,689
22450,1043,700
22455,1057,694
22460,1067,695
22465,1078,691
22470,1089,697
22475,1090,704
22480,1097,703
22485,1106,700
22490,1109,703
22495,1122,706
22500,1123,709
22505,1145,709
22510,1142,711
22515,1156,713
22520,1155,717
22525,1150,720
22530,1159,724
22535,1164,733
22540,1174,733
22545,1175,737
22550,1182,737
22555,1185,742
22560,1182,737
22565,1179,746
22570,1181,757
22575,1192,761
22580,1189,762
22585,1185,770
22590,1193,771
22595,1188,779
22600,1190,781
22605,1181,784
22610,1175,790
22615,1169,793
22620,1190,799
22625,1181,797
22630,1171,811
22635,1175,807
22640,1170,814
22645,1176,819
22650,1171,821
22655,1176,829
22660,1172,834
22665,1164,835
22670,1162,833
22675,1157,844
22680,1157,844
22685,1154,849
22690,1154,842
22695,1145,850
22700,1145,858
22705,1153,853
22710,1141,859
22715,1131,862
22720,1144,864
22725,1121,867
22730,1133,868
22735,1123,873
22740,1128,876
22745,1122,877
22750,1123,874
22755,1112,868
22760,1116,873
22765,1104,875
22770,1108,882
22775,1102,876
22780,1106,875
22785,1104,876
22790,1105,879
22795,1095,875
22800,1099,873
22805,1084,873
22810,1103,879
22815,1094,879
22820,1081,878
22825,1091,874
22830,1086,877
22835,1087,871
22840,1092,871
22845,1082,872
22850,1076,869
22855,1080,870
22860,1072,876
22865,1074,867
22870,1063,867
22875,1074,866
22880,1070,860
22885,1067,861
22890,1054,864
22895,1056,865
22900,1055,858
22905,1046,865
22910,1050,853
22915,1042,860
22920,1037,854
22925,1035,851
22930,1027,853
22935,1014,853
22940,1018,853
22945,1014,849
22950,1008,849
22955,1012,850
22960,995,848
22965,990,848
22970,991,848
22975,985,845
22980,978,843
22985,966,844
22990,964,840
22995,955,841
23000,947,843
23005,941,836
23010,923,834
23015,923,839
23020,904,835
23025,905,836
23030,902,833
23035,893,834
23040,882,832
23045,871,829
23050,872,830
23055,863,831
23060,849,827
23065,853,831
23070,848,828
23075,836,825
23080,832,822
23085,823,823
23090,814,824
23095,807,821
23100,802,821
23105,788,817
23110,782,820
23115,776,815
23120,778,816
23125,765,815
23130,759,816
23135,764,808
23140,770,810
23145,763,802
23150,767,809
23155,744,803
23160,755,799
23165,752,796
23170,746,796
23175,747,789
23180,748,785
23185,755,787
23190,748,784
23195,749,775
23200,744,779
23205,755,777
23210,749,763
23215,753,766
23220,761,764
23225,774,761
23230,774,759
23235,781,758
23240,782,753
23245,794,744
23250,796,747
23255,806,740
23260,805,738
23265,819,737
23270,822,733
23275,832,727
23280,841,725
23285,846,722
23290,852,718
23295,868,723
23300,880,717
23305,886,716
23310,904,711
23315,911,707
23320,919,710
23325,931,706
23330,954,705
23335,956,704
23340,956,702
23345,971,697
23350,985,698
23355,999,698
23360,996,692
23365,1009,695
23370,1014,697
23375,1031,697
23380,1032,695
23385,1051,693
23390,1061,690
23395,1065,695
23400,1081,698
23405,1090,698
23410,1099,703
23415,1097,701
23420,1114,707
23425,1120,702
23430,1121,712
23435,1133,711
23440,1135,711
23445,1139,716
23450,1150,718
23455,1144,716
23460,1165,723
23465,1159,724
23470,1164,729
23475,1174,729
23480,1175,735
23485,1175,743
23490,1172,741
23495,1181,744
23500,1182,749
23505,1183,753
23510,1190,761
23515,1181,770
23520,1187,771
23525,1193,776
23530,1185,781
23535,1184,781
23540,1185,788
23545,1191,793
23550,1187,792
23555,1191,793
23560,1182,809
23565,1185,808
23570,1174,807
23575,1175,810
23580,1184,816
23585,1174,822
23590,1172,831
23595,1161,832
23600,1169,835
23605,1159,835
23610,1152,839
23615,1163,843
23620,1152,849
23625,1152,851
23630,1152,854
23635,1138,851
23640,1139,861
23645,1138,855
23650,1140,868
23655,1135,867
23660,1131,864
23665,1132,873
23670,1129,871
23675,1122,871
23680,1126,873
23685,1119,871
23690,1110,876
23695,1105,883
23700,1115,880
23705,1106,872
23710,1104,875
23715,1105,875
23720,1093,875
23725,1098,879
23730,1099,875
23735,1107,883
23740,1099,874
23745,1091,879
23750,1096,877
23755,1094,875
23760,1083,877
23765,1087,873
23770,1077,872
23775,1074,879
23780,1082,871
23785,1082,872
23790,1080,876
23795,1078,867
23800,1061,869
23805,1075,865
23810,1068,863
23815,1066,867
23820,1052,861
23825,1060,863
23830,1052,857
23835,1047,860
23840,1050,863
23845,1043,854
23850,1047,856
23855,1034,859
23860,1038,860
23865,1028,851
23870,1026,846
23875,1018,856
23880,1014,850
23885,1011,848
23890,996,847
23895,996,844
23900,993,844
23905,979,845
23910,987,838
23915,971,843
23920,968,839
23925,965,843
23930,952,842
23935,950,835
23940,929,835
23945,929,836
23950,927,840
23955,913,830
23960,912,837
23965,897,830
23970,894,836
23975,881,829
23980,881,834
23985,868,833
23990,866,823
23995,856,832
24000,841,829
24005,844,827
24010,828,829
24015,826,822
24020,821,826
24025,823,825
24030,797,821
24035,799,820
24040,799,819
24045,801,816
24050,787,816
24055,778,813
24060,763,809
24065,770,817
24070,760,809
24075,764,799
24080,764,803
24085,757,805
24090,751,801
24095,745,796
24100,743,796
24105,757,795
24110,752,788
24115,744,786
24120,744,783
24125,754,783
24130,755,775
24135,751,776
24140,757,771
24145,759,769
24150,772,765
24155,762,764
24160,768,762
24165,772,757
24170,771,758
24175,775,748
24180,791,751
24185,803,744
24190,811,743
24195,806,736
24200,817,738
24205,830,732
24210,831,724
24215,836,725
24220,846,724
24225,856,722
24230,858,716
24235,883,715
24240,892,721
24245,903,718
24250,905,708
24255,910,703
24260,932,704
24265,938,701
24270,944,701
24275,954,697
24280,977,700
24285,982,699
24290,991,696
24295,998,694
24300,999,694
24305,1020,697
24310,1031,698
24315,1032,698
24320,1055,693
24325,1055,694
24330,1071,692
24335,1074,694
24340,1080,689
24345,1090,700
24350,1105,699
24355,1100,703
24360,1112,704
24365,1121,707
24370,1138,710
24375,1131,708
24380,1142,713
24385,1146,711
24390,1152,719
24395,1156,718
24400,1159,730
24405,1175,727
24410,1167,735
24415,1173,734
24420,1171,741
24425,1182,740
24430,1196,748
24435,1184,754
24440,1181,755
24445,1185,761
24450,1177,765
24455,1188,767
24460,1185,771
24465,1177,769
24470,1196,781
24475,1189,784
24480,1196,785
24485,1186,791
24490,1184,796
24495,1179,800
24500,1177,808
24505,1174,815
24510,1188,814
24515,1175,819
24520,1172,822
24525,1160,822
24530,1163,828
24535,1162,833
24540,1161,836
24545,1155,840
24550,1166,842
24555,1154,843
24560,1153,856
24565,1153,851
24570,1141,849
24575,1149,857
24580,1138,862
24585,1141,855
24590,1130,862
24595,1134,864
24600,1125,872
24605,1126,868
24610,1123,866
24615,1117,872
24620,1121,877
24625,1113,871
24630,1114,870
24635,1114,873
24640,1118,876
24645,1108,883
24650,1103,878
24655,1106,880
24660,1098,878
24665,1111,879
24670,1097,878
24675,1098,875
24680,1088,873
24685,1095,878
24690,1079,878
24695,1079,876
24700,1079,877
24705,1074,872
24710,1076,872
24715,1087,878
24720,1074,871
24725,1076,868
24730,1072,869
24735,1069,871
24740,1064,868
24745,1071,865
24750,1058,865
24755,1058,866
24760,1052,859
24765,1057,861
24770,1051,856
24775,1058,860
24780,1046,856
24785,1046,858
24790,1042,852
24795,1035,855
24800,1024,848
24805,1022,848
24810,1022,854
24815,1005,852
24820,1013,845
24825,1004,849
24830,998,845
24835,997,850
24840,983,849
24845,984,847
24850,973,844
24855,966,843
24860,959,843
24865,953,840
24870,944,839
24875,941,840
24880,916,836
24885,927,839
24890,911,842
24895,899,845
24900,905,831
24905,885,833
24910,878,831
24915,883,834
24920,883,837
24925,866,828
24930,857,826
24935,844,828
24940,836,827
24945,841,824
24950,830,823
24955,830,824
24960,818,819
24965,805,822
24970,791,820
24975,803,817
24980,786,814
24985,776,816
24990,778,819
24995,778,818
25000,775,815
25005,765,813
25010,760,811
25015,756,802
25020,759,804
25025,755,800
25030,762,803
25035,745,792
25040,749,790
25045,748,790
25050,754,786
25055,750,785
25060,749,781
25065,758,783
25070,754,773
25075,758,775
25080,766,764
25085,763,762
25090,768,765
25095,772,760
25100,769,762
25105,775,753
25110,779,753
25115,791,749
25120,789,746
25125,807,741
25130,805,740
25135,821,736
25140,836,727
25145,831,730
25150,840,731
25155,846,728
25160,859,718
25165,865,718
25170,875,715
25175,885,716
25180,895,708
25185,905,714
25190,921,709
25195,936,703
25200,932,705
25205,947,701
25210,965,700
25215,973,699
25220,978,698
25225,993,699
25230,1011,697
25235,1009,700
25240,1027,695
25245,1032,696
25250,1040,697
25255,1048,693
25260,1061,699
25265,1063,702
25270,1088,697
25275,1078,697
25280,1099,699
25285,1101,703
25290,1111,704
25295,1104,703
25300,1122,706
25305,1128,705
25310,1139,711
25315,1148,710
25320,1152,711
25325,1148,721
25330,1154,721
25335,1174,716
25340,1169,728
25345,1162,731
25350,1177,731
25355,1169,737
25360,1172,741
25365,1192,748
25370,1183,753
25375,1186,752
25380,1190,762
25385,1184,765
25390,1191,765
25395,1190,771
25400,1193,778
25405,1182,779
25410,1190,782
25415,1194,785
25420,1179,794
25425,1190,792
25430,1185,798
25435,1182,803
25440,1175,808
25445,1178,812
25450,1178,819
25455,1175,825
25460,1175,830
25465,1178,831
25470,1163,830
25475,1162,836
25480,1163,842
25485,1153,842
25490,1145,840
25495,1143,852
25500,1147,851
25505,1150,851
25510,1144,860
25515,1136,858
25520,1141,861
25525,1131,863
25530,1122,867
25535,1130,868
25540,1131,868
25545,1120,870
25550,1124,878
25555,1124,871
25560,1121,871
25565,1123,876
25570,1113,877
25575,1105,876
25580,1109,874
25585,1117,877
25590,1107,876
25595,1098,876
25600,1102,878
25605,1092,876
25610,1100,881
25615,1094,877
25620,1101,879
25625,1090,878
25630,1085,875
25635,1082,881
25640,1085,874
25645,1078,873
25650,1099,872
25655,1090,873
25660,1078,866
25665,1081,866
25670,1068,868
25675,1070,869
25680,1068,862
25685,1064,866
25690,1062,860
25695,1065,864
25700,1056,865
25705,1065,856
25710,1048,858
25715,1039,852
25720,1044,855
25725,1035,855
25730,1035,850
25735,1033,848
25740,1020,845
25745,1027,850
25750,1013,847
25755,1019,847
25760,999,843
25765,998,843
25770,984,848
25775,989,848
25780,986,844
25785,969,844
25790,970,842
25795,956,841
25800,949,841
25805,951,842
25810,937,843
25815,923,831
25820,924,839
25825,922,838
25830,906,832
25835,897,830
25840,895,839
25845,887,836
25850,870,836
25855,870,832
25860,865,829
25865,867,830
25870,858,828
25875,838,829
25880,833,829
25885,829,824
25890,828,823
25895,823,821
25900,808,821
25905,796,818
25910,792,821
25915,790,818
25920,781,814
25925,775,810
25930,775,811
25935,763,810
25940,766,812
25945,763,811
25950,759,808
25955,756,803
25960,751,803
25965,745,793
25970,749,794
25975,751,790
25980,746,797
25985,762,787
25990,750,780
25995,750,779
26000,752,781
26005,750,774
26010,761,777
26015,756,769
26020,770,768
26025,764,763
26030,761,761
26035,764,762
26040,783,752
26045,781,753
26050,782,752
26055,793,743
26060,801,746
26065,807,738
26070,820,743
26075,817,728
26080,843,731
26085,846,733
26090,860,716
26095,855,722
26100,868,718
26105,880,717
26110,885,708
26115,893,710
26120,903,709
26125,910,707
26130,921,703
26135,946,698
26140,950,705
26145,961,698
26150,967,700
26155,990,700
26160,987,701
26165,996,691
26170,1003,694
26175,1017,696
26180,1030,695
26185,1047,694
26190,1043,698
26195,1055,698
26200,1066,693
26205,1076,695
26210,1080,696
26215,1092,697
26220,1097,695
26225,1113,704
26230,1122,705
26235,1131,702
26240,1130,708
26245,1138,706
26250,1143,712
26255,1155,719
26260,1153,719
26265,1157,718
26270,1165,725
26275,1163,726
26280,1167,732
26285,1176,733
26290,1177,740
26295,1179,741
26300,1184,742
26305,1189,748
26310,1188,752
26315,1180,762
26320,1184,764
26325,1175,765
26330,1194,776
26335,1184,778
26340,1186,772
26345,1186,782
26350,1194,791
26355,1183,791
26360,1182,801
26365,1177,792
26370,1178,808
26375,1174,807
26380,1178,815
26385,1165,818
26390,1179,822
26395,1180,826
26400,1164,829
26405,1160,832
26410,1158,835
26415,1163,843
26420,1158,842
26425,1157,843
26430,1136,848
26435,1158,846
26440,1147,854
26445,1134,855
26450,1138,863
26455,1135,864
26460,1133,865
26465,1133,868
26470,1119,867
26475,1125,865
26480,1122,869
26485,1119,872
26490,1122,870
26495,1115,874
26500,1118,873
26505,1119,873
26510,1108,881
26515,1101,874
26520,1104,879
26525,1103,877
26530,1102,877
26535,1105,881
26540,1096,881
26545,1095,876
26550,1088,875
26555,1086,873
26560,1092,875
26565,1089,878
26570,1093,880
26575,1089,876
26580,1087,879
26585,1079,875
26590,1075,870
26595,1083,866
26600,1084,868
26605,1066,871
26610,1082,862
26615,1061,863
26620,1061,865
26625,1061,862
26630,1060,859
26635,1047,857
26640,1055,857
26645,1050,862
26650,1049,860
26655,1048,854
26660,1047,855
26665,1030,854
26670,1033,856
26675,1030,849
26680,1023,850
26685,1018,852
26690,1002,848
26695,1011,847
26700,996,848
26705,997,849
26710,988,849
26715,977,843
26720,970,844
26725,970,843
26730,957,839
26735,950,842
26740,944,842
26745,933,844
26750,940,835
26755,932,839
26760,917,836
26765,912,836
26770,894,835
26775,890,834
26780,894,833
26785,884,834
26790,877,835
26795,863,830
26800,859,827
26805,850,833
26810,847,830
26815,832,827
26820,826,828
26825,826,822
26830,814,821
26835,791,822
26840,800,822
26845,782,819
26850,789,819
26855,780,816
26860,781,813
26865,769,816
26870,765,807
26875,768,812
26880,755,808
26885,763,808
26890,753,805
26895,759,803
26900,749,799
26905,748,797
26910,743,795
26915,753,793
26920,749,788
26925,744,785
26930,748,779
26935,761,780
26940,759,777
26945,745,779
26950,765,766
26955,767,766
26960,765,762
26965,770,754
26970,774,761
26975,785,755
26980,788,755
26985,791,742
26990,802,744
26995,796,743
27000,809,738
27005,812,733
27010,834,731
27015,830,734
27020,837,725
27025,851,725
27030,856,726
27035,864,719
27040,874,715
27045,884,714
27050,888,718
27055,903,707
27060,915,701
27065,926,703
27070,940,702
27075,947,700
27080,951,698
27085,973,696
27090,977,697
27095,989,696
27100,996,700
27105,1010,691
27110,1022,697
27115,1039,693
27120,1041,695
27125,1036,695
27130,1064,693
27135,1074,695
27140,1074,699
27145,1085,699
27150,1103,700
27155,1093,696
27160,1111,700
27165,1113,707
27170,1119,705
27175,1131,705
27180,1128,714
27185,1136,715
27190,1146,713
27195,1152,723
27200,1163,718
27205,1161,731
27210,1166,731
27215,1176,727
27220,1172,733
27225,1176,739
27230,1180,741
27235,1170,742
27240,1181,749
27245,1181,750
27250,1184,758
27255,1180,764
27260,1188,762
27265,1181,772
27270,1191,774
27275,1186,785
27280,1197,786
27285,1182,786
27290,1183,792
27295,1177,795
27300,1190,801
27305,1189,804
27310,1179,809
27315,1182,814
27320,1179,821
27325,1173,819
27330,1173,823
27335,1163,822
27340,1167,835
27345,1168,832
27350,1161,840
27355,1148,843
27360,1154,848
27365,1160,844
27370,1152,858
27375,1147,855
27380,1132,856
27385,1143,857
27390,1134,863
27395,1133,862
27400,1127,859
27405,1130,863
27410,1115,869
27415,1133,876
27420,1128,871
27425,1118,873
27430,1114,868
27435,1113,873
27440,1115,872
27445,1109,873
27450,1107,873
27455,1112,882
27460,1098,876
27465,1091,880
27470,1107,884
27475,1098,875
27480,1098,882
27485,1098,879
27490,1094,875
27495,1096,875
27500,1086,881
27505,1083,869
27510,1088,878
27515,1084,869
27520,1090,871
27525,1073,867
27530,1080,865
27535,1076,869
27540,1072,865
27545,1061,869
27550,1069,865
27555,1070,863
27560,1065,868
27565,1055,854
27570,1055,864
27575,1054,857
27580,1047,860
27585,1048,858
27590,1046,859
27595,1043,858
27600,1035,854
27605,1032,852
27610,1008,848
27615,1015,854
27620,1016,852
27625,1020,846
27630,1006,846
27635,995,844
27640,989,844
27645,981,844
27650,985,845
27655,973,849
27660,970,845
27665,974,841
27670,953,838
27675,950,840
27680,935,844
27685,928,837
27690,918,843
27695,919,839
27700,914,837
27705,891,835
27710,890,834
27715,888,838
27720,882,836
27725,868,831
27730,862,830
27735,858,832
27740,852,829
27745,839,828
27750,833,830
27755,818,822
27760,822,822
27765,820,821
27770,796,815
27775,799,819
27780,801,821
27785,793,817
27790,779,816
27795,785,813
27800,766,817
27805,775,815
27810,761,808
27815,764,807
27820,760,805
27825,759,802
27830,762,801
27835,759,798
27840,741,794
27845,746,793
27850,745,789
27855,752,790
27860,743,782
27865,747,780
27870,748,785
27875,752,775
27880,753,774
27885,758,770
27890,758,769
27895,756,763
27900,772,759
27905,767,756
27910,785,753
27915,779,753
27920,792,748
27925,793,744
27930,815,740
27935,816,737
27940,820,736
27945,818,737
27950,844,735
27955,833,724
27960,846,723
27965,849,725
27970,872,718
27975,881,719
27980,889,713
27985,898,714
27990,907,709
27995,908,712
28000,927,705
28005,931,708
28010,950,700
28015,965,701
28020,975,706
28025,974,700
28030,990,695
28035,1002,694
28040,1003,696
28045,1016,690
28050,1022,697
28055,1039,693
28060,1056,691
28065,1055,696
28070,1065,696
28075,1077,698
28080,1080,700
28085,1100,698
28090,1107,700
28095,1109,707
28100,1123,704
28105,1114,708
28110,1131,712
28115,1137,710
28120,1143,717
28125,1140,718
28130,1156,716
28135,1156,724
28140,1162,727
28145,1163,729
28150,1169,734
28155,1173,733
28160,1173,737
28165,1184,738
28170,1187,740
28175,1185,746
28180,1186,758
28185,1181,756
28190,1186,759
28195,1195,773
28200,1193,772
28205,1177,779
28210,1196,781
28215,1189,783
28220,1187,790
28225,1188,794
28230,1181,798
28235,1186,801
28240,1179,801
28245,1181,807
28250,1180,808
28255,1177,820
28260,1175,822
28265,1160,823
28270,1169,824
28275,1172,835
28280,1164,837
28285,1165,835
28290,1161,839
28295,1156,842
28300,1155,850
28305,1152,849
28310,1144,855
28315,1143,850
28320,1150,859
28325,1145,866
28330,1137,864
28335,1138,869
28340,1126,870
28345,1130,872
28350,1127,871
28355,1119,875
28360,1120,876
28365,1111,869
28370,1119,870
28375,1108,879
28380,1115,880
28385,1110,880
28390,1109,876
28395,1103,880
28400,1097,873
28405,1107,879
28410,1103,879
28415,1087,874
28420,1102,880
28425,1090,876
28430,1089,879
28435,1092,872
28440,1090,876
28445,1075,873
28450,1089,871
28455,1087,874
28460,1077,874
28465,1073,866
28470,1084,871
28475,1075,863
28480,1078,864
28485,1064,869
28490,1073,869
28495,1062,860
28500,1056,866
28505,1057,863
28510,1053,858
28515,1056,861
28520,1052,857
28525,1044,853
28530,1044,852
28535,1027,855
28540,1033,849
28545,1036,850
28550,1034,852
28555,1015,851
28560,1008,848
28565,1006,847
28570,992,843
28575,992,844
28580,987,844
28585,986,846
28590,969,844
28595,970,844
28600,964,839
28605,958,834
28610,949,839
28615,945,837
28620,929,838
28625,910,840
28630,919,839
28635,911,838
28640,905,839
28645,883,838
28650,891,834
28655,884,833
28660,871,840
28665,875,831
28670,855,831
28675,853,834
28680,838,829
28685,848,829
28690,826,827
28695,821,829
28700,816,825
28705,805,823
28710,801,817
28715,790,814
28720,789,818
28725,779,818
28730,782,817
28735,773,813
28740,769,817
28745,766,805
28750,763,804
28755,759,806
28760,748,800
28765,759,799
28770,752,800
28775,754,798
28780,757,788
28785,753,795
28790,743,790
28795,758,788
28800,743,783
28805,754,783
28810,762,778
28815,752,776
28820,766,769
28825,753,765
28830,762,767
28835,770,760
28840,770,764
28845,769,756
28850,781,752
28855,789,753
28860,795,747
28865,802,741
28870,804,735
28875,811,737
28880,827,736
28885,830,728
28890,832,727
28895,836,728
28900,854,722
28905,865,721
28910,874,719
28915,878,709
28920,892,708
28925,905,708
28930,915,707
28935,927,707
28940,930,704
28945,946,702
28950,959,702
28955,975,695
28960,977,696
28965,993,698
28970,1002,698
28975,1000,698
28980,1016,699
28985,1036,695
28990,1031,698
28995,1037,697
29000,1059,695
29005,1069,692
29010,1074,693
29015,1084,695
29020,1093,695
29025,1092,700
29030,1105,702
29035,1117,703
29040,1124,708
29045,1120,706
29050,1140,709
29055,1145,709
29060,1147,719
29065,1150,713
29070,1158,721
29075,1167,729
29080,1164,731
29085,1172,730
29090,1170,732
29095,1175,743
29100,1188,742
29105,1190,744
29110,1181,754
29115,1173,757
29120,1188,759
29125,1187,761
29130,1182,770
29135,1190,775
29140,1183,770
29145,1186,783
29150,1193,777
29155,1185,785
29160,1191,789
29165,1187,798
29170,1184,805
29175,1187,800
29180,1186,811
29185,1176,812
29190,1172,817
29195,1181,827
29200,1171,826
29205,1165,832
29210,1166,832
29215,1161,838
29220,1161,836
29225,1161,844
29230,1153,847
29235,1149,844
29240,1151,844
29245,1134,848
29250,1141,856
29255,1139,863
29260,1134,868
29265,1140,860
29270,1137,866
29275,1130,868
29280,1122,866
29285,1114,873
29290,1116,870
29295,1125,875
29300,1114,877
29305,1109,871
29310,1115,870
29315,1105,881
29320,1109,879
29325,1107,877
29330,1101,879
29335,1094,885
29340,1094,874
29345,1100,880
29350,1096,879
29355,1097,874
29360,1093,872
29365,1094,878
29370,1086,872
29375,1086,872
29380,1090,875
29385,1097,872
29390,1090,871
29395,1086,872
29400,1080,871
29405,1067,871
29410,1074,870
29415,1064,863
29420,1069,867
29425,1065,862
29430,1061,862
29435,1054,864
29440,1059,858
29445,1057,860
29450,1052,857
29455,1047,861
29460,1047,858
29465,1040,858
29470,1041,858
29475,1021,854
29480,1022,855
29485,1013,854
29490,1015,845
29495,1012,848
29500,1005,848
29505,1003,847
29510,1004,845
29515,989,848
29520,981,843
29525,968,840
29530,963,840
29535,964,843
29540,951,840
29545,954,843
29550,942,834
29555,931,841
29560,922,843
29565,915,840
29570,910,835
29575,903,833
29580,892,835
29585,884,829
29590,879,834
29595,874,831
29600,869,834
29605,859,837
29610,854,839
29615,844,828
29620,837,834
29625,826,829
29630,819,831
29635,809,823
29640,809,821
29645,789,819
29650,793,821
29655,785,819
29660,783,814
29665,775,816
29670,780,815
29675,768,812
29680,763,807
29685,756,804
29690,767,804
29695,758,802
29700,749,800
29705,755,801
29710,755,797
29715,754,791
29720,749,795
29725,753,787
29730,745,790
29735,751,778
29740,745,781
29745,751,774
29750,748,776
29755,753,769
29760,766,764
29765,755,764
29770,770,760
29775,764,756
29780,775,754
29785,786,754
29790,784,753
29795,794,747
29800,808,743
29805,811,740
29810,810,735
29815,819,738
29820,826,728
29825,834,728
29830,842,727
29835,860,725
29840,855,717
29845,872,717
29850,891,713
29855,898,716
29860,902,711
29865,919,709
29870,923,705
29875,927,704
29880,953,701
29885,965,701
29890,957,699
29895,969,698
29900,988,694
29905,997,700
29910,1010,696
29915,1012,691
29920,1033,695
29925,1037,694
29930,1046,693
29935,1064,695
29940,1062,695
29945,1074,696
29950,1080,696
29955,1098,701
29960,1099,696
29965,1105,706
29970,1114,709
29975,1118,703
29980,1135,707
29985,1137,709
29990,1138,711
29995,1146,718
30000,1153,722
30005,1151,723
30010,1157,723
30015,1163,730
30020,1168,731
30025,1174,737
30030,1164,736
30035,1180,742
30040,1175,745
30045,1185,747
30050,1187,752
30055,1185,755
30060,1190,766
30065,1188,764
30070,1191,770
30075,1187,773
30080,1185,776
30085,1193,786
30090,1193,789
30095,1187,791
30100,1180,795
30105,1185,804
30110,1175,808
30115,1181,806
30120,1177,813
30125,1173,814
30130,1174,824
30135,1165,827
30140,1175,828
30145,1165,835
30150,1167,830
30155,1166,839
30160,1160,839
30165,1166,845
30170,1156,848
30175,1157,851
30180,1143,852
30185,1137,858
30190,1134,859
30195,1140,863
30200,1135,861
30205,1134,860
30210,1127,867
30215,1125,868
30220,1135,873
30225,1116,876
30230,1118,874
30235,1114,873
30240,1111,874
30245,1114,878
30250,1117,876
30255,1101,876
30260,1101,876
30265,1104,876
30270,1102,880
30275,1098,883
30280,1095,875
30285,1094,882
30290,1095,879
30295,1092,870
30300,1082,878
30305,1087,877
30310,1093,874
30315,1089,875
30320,1083,875
30325,1075,873
30330,1086,869
30335,1083,872
30340,1074,870
30345,1070,866
30350,1066,867
30355,1071,867
30360,1067,866
30365,1065,859
30370,1063,864
30375,1058,858
30380,1042,865
30385,1059,858
30390,1045,858
30395,1044,854
30400,1043,853
30405,1035,851
30410,1029,849
30415,1021,854
30420,1027,849
30425,1018,847
30430,1008,845
30435,1005,847
30440,996,849
30445,1005,845
30450,987,847
30455,986,844
30460,981,846
30465,973,851
30470,969,842
30475,950,843
30480,947,841
30485,940,842
30490,930,841
30495,923,837
30500,916,834
30505,906,835
30510,904,831
30515,889,842
30520,892,833
30525,882,837
30530,869,829
30535,866,828
30540,856,834
30545,852,831
30550,838,838
30555,833,824
30560,823,827
30565,823,824
30570,816,824
30575,810,821
30580,815,823
30585,790,819
30590,803,818
30595,779,815
30600,776,810
30605,780,815
30610,766,812
30615,772,812
30620,764,808
30625,757,807
30630,758,802
30635,764,801
30640,750,801
30645,753,801
30650,749,793
30655,738,794
30660,750,786
30665,747,788
30670,751,783
30675,739,781
30680,753,772
30685,749,777
30690,759,772
30695,756,766
30700,756,762
30705,767,769
30710,769,758
30715,775,755
30720,774,755
30725,784,751
30730,806,745
30735,803,739
30740,807,744
30745,810,744
30750,817,733
30755,823,730
30760,839,727
30765,845,726
30770,865,722
30775,860,723
30780,878,716
30785,884,715
30790,884,715
30795,905,712
30800,923,704
30805,934,701
30810,940,708
30815,947,703
30820,954,699
30825,968,698
30830,976,696
30835,981,698
30840,991,690
30845,1006,693
30850,1020,694
30855,1030,697
30860,1043,693
30865,1048,694
30870,1049,697
30875,1071,689
30880,1068,697
30885,1084,697
30890,1091,694
30895,1097,698
30900,1112,697
30905,1106,699
30910,1119,708
30915,1129,709
30920,1140,714
30925,1142,712
30930,1147,716
30935,1167,720
30940,1160,724
30945,1160,719
30950,1165,728
30955,1173,727
30960,1167,731
30965,1173,741
30970,1182,739
30975,1182,749
30980,1180,748
30985,1189,754
30990,1182,762
30995,1188,764
31000,1193,768
31005,1184,766
31010,1183,776
31015,1187,777
31020,1193,787
31025,1179,784
31030,1179,791
31035,1188,800
31040,1191,803
31045,1176,802
31050,1182,808
31055,1173,814
31060,1176,813
31065,1184,816
31070,1168,825
31075,1161,827
31080,1172,832
31085,1163,838
31090,1166,833
31095,1151,842
31100,1149,843
31105,1149,847
31110,1156,848
31115,1136,847
31120,1144,857
31125,1138,855
31130,1137,863
31135,1130,861
31140,1136,859
31145,1136,860
31150,1135,865
31155,1128,871
31160,1128,870
31165,1121,870
31170,1126,868
31175,1117,869
31180,1101,870
31185,1103,880
31190,1107,879
31195,1105,875
31200,1109,881
31205,1102,878
31210,1105,881
31215,1099,877
31220,1094,877
31225,1097,879
31230,1093,875
31235,1088,877
31240,1086,872
31245,1082,881
31250,1088,872
31255,1077,869
31260,1084,870
31265,1084,869
31270,1078,866
31275,1075,868
31280,1067,870
31285,1063,872
31290,1066,863
31295,1067,868
31300,1070,869
31305,1060,865
31310,1052,857
31315,1056,853
31320,1053,863
31325,1047,861
31330,1031,853
31335,1039,859
31340,1036,849
31345,1034,853
31350,1024,852
31355,1015,852
31360,1012,848
31365,1005,847
31370,1010,840
31375,998,849
31380,993,850
31385,989,843
31390,977,840
31395,968,848
31400,962,842
31405,968,836
31410,961,839
31415,943,837
31420,943,839
31425,935,841
31430,934,838
31435,916,835
31440,914,831
31445,903,832
31450,903,832
31455,876,831
31460,884,830
31465,873,834
31470,878,831
31475,853,828
31480,860,832
31485,852,832
31490,831,832
31495,823,826
31500,818,825
31505,816,827
31510,817,825
31515,806,818
31520,801,820
31525,800,815
31530,785,815
31535,779,822
31540,776,811
31545,770,813
31550,767,808
31555,758,807
31560,757,803
31565,761,800
31570,760,801
31575,756,799
31580,755,791
31585,753,792
31590,746,793
31595,743,793
31600,745,784
31605,744,779
31610,754,777
31615,753,780
31620,758,773
31625,753,775
31630,756,770
31635,763,770
31640,769,765
31645,770,760
31650,786,754
31655,779,755
31660,781,745
31665,798,746
31670,796,749
31675,813,737
31680,811,735
31685,827,731
31690,830,725
31695,838,729
31700,843,727
31705,862,720
31710,866,723
31715,875,719
31720,888,716
31725,892,710
31730,913,710
31735,917,710
31740,908,706
31745,934,700
31750,937,700
31755,959,705
31760,970,700
31765,972,699
31770,985,699
31775,995,698
31780,1001,695
31785,1009,691
31790,1025,693
31795,1042,697
31800,1049,696
31805,1050,699
31810,1069,693
31815,1078,695
31820,1088,698
31825,1084,703
31830,1095,698
31835,1104,699
31840,1123,699
31845,1115,701
31850,1130,710
31855,1124,710
31860,1136,712
31865,1147,719
31870,1152,711
31875,1152,721
31880,1161,722
31885,1170,727
31890,1173,730
31895,1176,735
31900,1164,739
31905,1180,740
31910,1170,742
31915,1177,748
31920,1192,753
31925,1184,759
31930,1193,765
31935,1192,768
31940,1193,769
31945,1188,777
31950,1186,781
31955,1189,784
31960,1192,787
31965,1181,792
31970,1189,794
31975,1181,799
31980,1179,799
31985,1182,811
31990,1173,812
31995,1180,819
32000,1171,826
32005,1180,827
32009,1170,828
32015,1169,826
32020,1162,836
32025,1153,838
32030,1157,842
32034,1149,843
32040,1150,850
32045,1140,852
32049,1150,854
32055,1141,853
32060,1152,858
32064,1131,861
32070,1134,862
32075,1132,861
32080,1128,869
32085,1127,867
32090,1116,875
32095,1117,874
32100,1117,871
32104,1120,871
32110,1123,871
32115,1111,882
32119,1112,872
32125,1108,878
32130,1105,871
32134,1100,876
32140,1104,880
32145,1108,879
32150,1101,879
32155,1089,875
32159,1099,874
32165,1092,875
32170,1092,875
32174,1083,878
32180,1086,876
32185,1085,877
32189,1085,874
32195,1078,867
32200,1079,870
32205,1078,871
32210,1072,867
32215,1073,869
32220,1069,868
32225,1070,864
32229,1066,869
32235,1062,870
32240,1059,863
32244,1056,864
32250,1059,853
32255,1052,857
32259,1042,856
32265,1038,856
32270,1048,859
32275,1040,853
32280,1030,854
32284,1024,852
32290,1013,850
32295,1015,849
32299,1017,850
32305,1012,852
32310,992,845
32314,1003,849
32320,984,852
32325,982,843
32330,974,847
32335,980,840
32340,964,839
32345,950,836
32350,944,842
32354,937,839
32360,935,842
32365,932,834
32369,917,837
32375,912,833
32380,903,839
32384,894,837
32390,892,833
32395,877,837
32400,866,832
32405,862,822
32409,854,830
32415,854,836
32420,855,833
32424,832,828
32430,825,828
32435,822,828
32439,826,823
32445,814,826
32450,805,821
32455,795,819
32460,793,819
32465,789,818
32470,777,816
32475,781,812
32479,774,812
32485,774,807
32490,770,805
32494,763,810
32500,751,800
32505,758,806
32509,753,796
32515,755,799
32520,747,797
32525,747,791
32530,758,790
32534,747,781
32540,754,779
32545,743,774
32549,748,775
32555,749,768
32560,749,768
32564,759,773
32570,769,763
32575,769,760
32580,768,762
32585,782,755
32590,783,756
32595,791,747
32600,788,748
32604,797,743
32610,810,742
32615,810,736
32619,821,731
32625,834,728
32630,834,731
32634,844,725
32640,855,723
32645,866,723
32650,866,720
32655,889,715
32659,893,713
32665,911,707
32670,913,705
32674,920,708
32680,931,704
32685,950,703
32689,956,705
32695,958,699
32700,990,700
32705,976,699
32710,1003,695
32715,1008,700
32720,1020,694
32725,1033,698
32729,1034,698
32735,1042,695
32740,1060,696
32744,1061,694
32750,1070,696
32755,1077,698
32759,1097,699
32765,1092,703
32770,1104,701
32775,1115,697
32780,1121,713
32785,1126,705
32790,1134,706
32795,1134,710
32800,1134,717
32805,1144,718
32810,1147,723
32815,1156,725
32820,1170,721
32825,1164,735
32830,1175,729
32835,1172,735
32840,1181,736
32845,1186,746
32850,1184,754
32855,1179,755
32860,1189,759
32865,1188,759
32870,1181,764
32875,1188,768
32880,1187,778
32885,1193,779
32890,1195,780
32895,1186,787
32900,1188,785
32905,1184,793
32910,1188,798
32915,1182,804
32920,1186,813
32925,1177,811
32930,1176,815
32935,1171,825
32940,1174,825
32945,1167,825
32950,1169,831
32955,1159,837
32960,1167,841
32965,1160,844
32970,1155,849
32975,1157,847
32980,1148,854
32985,1146,855
32990,1147,855
32995,1146,861
33000,1146,860
33005,1136,860
33010,1125,866
33015,1138,865
33020,1127,863
33025,1120,872
33030,1123,870
33035,1116,872
33040,1119,879
33045,1116,880
33050,1113,874
33055,1111,874
33060,1109,876
33065,1107,877
33070,1105,873
33075,1093,884
33080,1096,882
33085,1098,872
33090,1092,878
33095,1100,876
33100,1101,875
33105,1092,873
33110,1091,874
33115,1091,871
33120,1099,876
33125,1090,872
33130,1079,868
33135,1068,870
33140,1079,873
33145,1074,871
33150,1080,867
33155,1066,861
33160,1068,869
33165,1061,858
33170,1065,864
33175,1060,864
33180,1055,868
33185,1057,858
33190,1049,854
33195,1047,857
33200,1049,859
33205,1041,856
33210,1044,850
33215,1027,858
33220,1020,850
33225,1028,851
33230,1016,857
33235,1009,852
33240,995,848
33245,1000,851
33250,985,845
33255,992,848
33260,983,844
33265,976,834
33270,978,836
33275,960,840
33280,963,841
33285,951,844
33290,939,844
33295,935,837
33300,925,840
33305,918,835
33310,908,832
33315,912,837
33320,896,833
33325,886,829
33330,888,827
33335,868,834
33340,874,839
33345,852,832
33350,853,826
33355,849,827
33360,829,829
33365,817,827
33370,826,819
33375,814,820
33380,799,822
33385,807,822
33390,806,813
33395,792,815
33400,786,812
33405,781,818
33410,787,817
33415,780,812
33420,768,804
33425,767,809
33430,759,802
33435,760,802
33440,757,797
33445,750,797
33450,746,800
33455,744,794
33460,747,793
33465,752,790
33470,742,787
33475,751,783
33480,750,784
33485,751,777
33490,748,775
33495,756,774
33500,757,766
33505,758,769
33510,763,763
33515,776,762
33520,772,756
33525,775,757
33530,781,746
33535,797,753
33540,789,744
33545,807,741
33550,813,736
33555,828,733
33560,835,730
33565,845,730
33570,844,724
33575,854,720
33580,868,722
33585,871,718
33590,884,715
33595,893,715
33600,896,707
33605,912,706
33610,911,713
33615,932,707
33620,938,705
33625,958,702
33630,964,704
33635,984,697
33640,978,695
33645,992,698
33650,1005,696
33655,1021,699
33660,1031,695
33665,1031,695
33670,1051,696
33675,1057,690
33680,1057,696
33685,1076,693
33690,1077,701
33695,1090,693
33700,1100,697
33705,1103,700
33710,1122,705
33715,1127,709
33720,1123,708
33725,1125,708
33730,1137,712
33735,1148,716
33740,1153,722
33745,1154,716
33750,1157,726
33755,1170,729
33760,1175,728
33765,1168,735
33770,1176,735
33775,1180,746
33780,1183,745
33785,1180,745
33790,1179,750
33795,1196,757
33800,1180,760
33805,1192,766
33810,1188,768
33815,1196,774
33820,1193,777
33825,1191,777
33830,1179,789
33835,1183,794
33840,1189,789
33845,1183,803
33850,1181,807
33855,1173,811
33860,1182,813
33865,1177,816
33870,1181,819
33875,1170,821
33880,1176,830
33885,1169,833
33890,1166,829
33895,1160,836
33900,1154,835
33905,1160,852
33910,1154,848
33915,1144,852
33920,1142,859
33925,1142,861
33930,1140,862
33935,1136,864
33940,1135,861
33945,1132,868
33950,1126,868
33955,1129,875
33960,1131,870
33965,1118,868
33970,1128,865
33975,1117,873
33980,1114,874
33985,1113,874
33990,1112,875
33995,1108,878
34000,1112,879
34005,1112,874
34010,1103,876
34015,1107,881
34020,1100,877
34025,1088,878
34030,1090,879
34035,1099,876
34040,1100,873
34045,1092,874
34050,1088,873
34055,1090,872
34060,1084,873
34065,1086,870
34070,1080,876
34075,1081,865
34080,1074,870
34085,1073,873
34090,1071,872
34095,1071,868
34100,1061,862
34105,1067,868
34110,1060,859
34115,1062,861
34120,1051,862
34125,1048,859
34130,1051,861
34135,1052,856
34140,1039,858
34145,1028,856
34150,1037,859
34155,1037,850
34160,1027,851
34165,1026,853
34170,1011,851
34175,1014,846
34180,1004,847
34185,992,842
34190,996,843
34195,983,842
34200,975,841
34205,982,849
34210,962,836
34215,951,847
34220,934,841
34225,945,832
34230,945,839
34235,926,833
34240,925,841
34245,902,830
34250,903,836
34255,899,836
34260,885,839
34265,878,835
34270,871,834
34275,862,835
34280,849,829
34285,854,832
34290,851,829
34295,838,827
34300,831,825
34305,823,826
34310,811,829
34315,802,826
34320,804,819
34325,799,818
34330,798,820
34335,783,819
34340,779,819
34345,778,814
34350,768,814
34355,768,811
34360,769,803
34365,761,804
34370,758,804
34375,751,804
34380,754,797
34385,748,800
34390,743,797
34395,757,791
34400,756,792
34405,757,784
34410,748,782
34415,742,780
34420,754,782
34425,758,775
34430,759,771
34435,760,766
34440,759,768
34445,773,761
34450,773,762
34455,778,757
34460,782,754
34465,793,755
34470,795,743
34475,797,742
34480,806,744
34485,808,737
34490,819,739
34495,831,729
34500,840,729
34505,843,723
34510,852,718
34515,876,720
34520,868,714
34525,885,714
34530,885,714
34535,904,713
34540,917,713
34545,930,709
34550,926,696
34555,954,697
34560,956,703
34565,963,700
34570,976,703
34575,986,697
34580,996,697
34585,991,700
34590,1015,696
34595,1016,691
34600,1030,699
34605,1040,701
34610,1054,697
34615,1065,696
34620,1075,695
34625,1078,695
34630,1092,702
34635,1093,699
34640,1111,704
34645,1113,701
34650,1115,704
34655,1134,704
34660,1131,712
34665,1127,714
34670,1144,712
34675,1151,714
34680,1149,719
34685,1166,726
34690,1166,727
34695,1169,727
34700,1171,733
34705,1182,736
34710,1175,744
34715,1185,744
34720,1177,746
34725,1184,755
34730,1186,757
34735,1193,763
34740,1198,764
34745,1182,771
34750,1191,772
34755,1187,774
34760,1184,785
34765,1188,783
34770,1187,786
34775,1193,799
34780,1177,799
34785,1180,798
34790,1181,807
34795,1177,817
34800,1175,818
34805,1174,821
34810,1172,826
34815,1178,828
34820,1163,828
34825,1163,828
34830,1169,840
34835,1150,837
34840,1152,839
34845,1151,848
34850,1150,847
34855,1144,854
34860,1144,854
34865,1149,856
34870,1140,856
34875,1135,860
34880,1139,862
34885,1130,872
34890,1131,872
34895,1132,875
34900,1118,870
34905,1116,871
34910,1119,871
34915,1117,874
34920,1111,874
34925,1111,880
34930,1104,874
34935,1108,874
34940,1103,884
34945,1099,882
34950,1098,875
34955,1092,872
34960,1099,872
34965,1102,876
34970,1088,880
34975,1093,877
34980,1099,874
34985,1090,877
34990,1084,876
34995,1079,870
35000,1085,869
35005,1085,872
35010,1081,872
35015,1078,869
35020,1078,865
35025,1070,866
35030,1079,867
35035,1070,859
35040,1063,868
35045,1052,863
35050,1048,862
35055,1052,860
35060,1050,855
35065,1044,857
35070,1040,855
35075,1038,856
35080,1029,855
35085,1037,852
35090,1031,852
35095,1020,854
35100,1015,849
35105,1010,850
35110,1002,851
35115,1001,851
35120,990,844
35125,985,844
35130,983,841
35135,972,842
35140,977,836
35145,962,844
35150,950,839
35155,946,839
35160,940,841
35165,941,834
35170,928,834
35175,924,832
35180,919,838
35185,914,838
35190,900,834
35195,893,836
35200,878,833
35205,874,830
35210,868,831
35215,868,831
35220,848,832
35225,842,825
35230,833,828
35235,829,829
35240,831,836
35245,811,820
35250,807,822
35255,804,824
35260,795,817
35265,799,821
35270,782,821
35275,784,809
35280,782,811
35285,778,815
35290,766,808
35295,772,807
35300,759,808
35305,761,807
35310,752,801
35315,750,802
35320,747,796
35325,750,795
35330,752,786
35335,740,789
35340,746,788
35345,743,787
35350,752,784
35355,755,783
35360,756,772
35365,752,774
35370,755,770
35375,761,767
35380,766,763
35385,772,764
35390,769,752
35395,787,756
35400,782,752
35405,793,749
35410,797,745
35415,808,739
35420,806,735
35425,817,733
35430,831,726
35435,834,731
35440,841,725
35445,848,721
35450,863,719
35455,868,724
35460,874,714
35465,899,713
35470,894,711
35475,919,704
35480,919,701
35485,929,708
35490,948,702
35495,960,705
35500,962,701
35505,978,701
35510,986,696
35515,994,696
35520,1005,701
35525,1009,695
35530,1017,694
35535,1024,693
35540,1030,692
35545,1049,700
35550,1059,696
35555,1073,694
35560,1083,693
35565,1088,696
35570,1107,702
35575,1103,702
35580,1120,700
35585,1122,704
35590,1122,709
35595,1141,711
35600,1134,709
35605,1149,711
35610,1154,723
35615,1148,718
35620,1162,724
35625,1160,722
35630,1170,728
35635,1171,728
35640,1170,742
35645,1188,743
35650,1191,750
35655,1181,749
35660,1181,755
35665,1195,755
35670,1196,764
35675,1196,766
35680,1181,768
35685,1186,774
35690,1193,782
35695,1190,784
35700,1185,786
35705,1188,793
35710,1188,797
35715,1183,799
35720,1187,801
35725,1181,805
35730,1183,813
35735,1179,820
35740,1174,820
35745,1173,827
35750,1173,834
35755,1156,830
35760,1162,838
35765,1166,834
35770,1170,843
35775,1156,844
35780,1153,850
35785,1158,851
35790,1134,855
35795,1145,858
35800,1150,864
35805,1138,858
35810,1140,862
35815,1140,867
35820,1124,870
35825,1129,867
35830,1121,872
35835,1126,874
35840,1114,874
35845,1122,874
35850,1122,876
35855,1109,877
35860,1115,882
35865,1103,881
35870,1106,879
35875,1112,879
35880,1101,877
35885,1088,880
35890,1101,882
35895,1098,878
35900,1091,879
35905,1097,876
35910,1091,874
35915,1089,875
35920,1095,868
35925,1084,875
35930,1082,874
35935,1076,872
35940,1085,872
35945,1074,875
35950,1073,869
35955,1078,867
35960,1073,869
35965,1063,870
35970,1069,867
35975,1067,870
35980,1061,862
35985,1051,860
35990,1055,861
35995,1054,859
36000,1039,859
36005,1046,853
36010,1038,851
36015,1037,857
36020,1037,850
36025,1026,852
36030,1018,851
36035,1013,851
36040,1020,851
36045,1005,851
36050,991,844
36055,993,847
36060,995,845
36065,996,849
36070,976,845
36075,975,843
36080,964,844
36085,956,843
36090,953,840
36095,949,838
36100,927,842
36105,932,837
36110,932,841
36115,923,837
36120,907,834
36125,900,835
36130,898,834
36135,882,837
36140,865,834
36145,868,829
36150,857,833
36155,856,832
36160,841,828
36165,845,827
36170,828,831
36175,821,828
36180,823,827
36185,806,823
36190,807,827
36195,798,826
36200,785,821
36205,794,820
36210,787,818
36215,780,809
36220,777,813
36225,762,807
36230,767,807
36235,763,803
36240,758,799
36245,757,806
36250,756,793
36255,749,793
36260,751,792
36265,752,797
36270,751,789
36275,751,787
36280,746,787
36285,747,788
36290,749,782
36295,755,781
36300,747,774
36305,765,768
36310,754,767
36315,763,767
36320,771,761
36325,777,759
36330,774,751
36335,783,748
36340,788,749
36345,801,739
36350,801,739
36355,818,742
36360,813,734
36365,828,731
36370,833,729
36375,849,728
36380,857,725
36385,856,713
36390,874,711
36395,878,717
36400,897,719
36405,904,713
36410,915,708
36415,919,705
36420,928,705
36425,937,704
36430,947,696
36435,962,701
36440,979,698
36445,977,699
36450,997,696
36455,1009,694
36460,1021,693
36465,1025,694
36470,1038,695
36475,1041,700
36480,1054,695
36485,1059,699
36490,1068,699
36495,1083,694
36500,1092,698
36505,1094,699
36510,1107,705
36515,1106,698
36520,1113,703
36525,1129,705
36530,1142,703
36535,1133,712
36540,1145,715
36545,1157,716
36550,1152,721
36555,1160,723
36560,1161,728
36565,1168,733
36570,1176,736
36575,1171,739
36580,1172,740
36585,1179,744
36590,1185,750
36595,1184,753
36600,1174,754
36605,1192,760
36610,1186,766
36615,1194,768
36620,1186,781
36625,1190,773
36630,1187,784
36635,1181,780
36640,1185,790
36645,1182,792
36650,1190,798
36655,1183,807
36660,1179,801
36665,1186,809
36670,1181,815
36675,1180,818
36680,1166,823
36685,1164,826
36690,1163,827
36695,1161,831
36700,1170,836
36705,1155,844
36710,1151,843
36715,1149,849
36720,1158,849
36725,1146,858
36730,1142,858
36735,1150,854
36740,1137,855
36745,1125,854
36750,1129,866
36755,1125,868
36760,1117,863
36765,1113,866
36770,1118,875
36775,1122,872
36780,1127,871
36785,1123,876
36790,1104,874
36795,1109,874
36800,1106,874
36805,1102,876
36810,1101,879
36815,1105,880
36820,1109,876
36825,1092,879
36830,1093,879
36835,1101,878
36840,1091,874
36845,1085,877
36850,1085,871
36855,1096,878
36860,1093,870
36865,1085,876
36870,1084,872
36875,1074,869
36880,1085,872
36885,1074,871
36890,1069,869
36895,1074,869
36900,1066,866
36905,1071,870
36910,1061,862
36915,1067,864
36920,1062,864
36925,1049,864
36930,1049,857
36935,1041,860
36940,1044,862
36945,1040,855
36950,1036,854
36955,1038,855
36960,1027,854
36965,1021,849
36970,1015,848
36975,1010,851
36980,1008,848
36985,1014,845
36990,997,844
36995,990,844
37000,989,842
37005,974,842
37010,971,840
37015,968,841
37020,960,844
37025,945,841
37030,942,839
37035,937,837
37040,932,835
37045,922,839
37050,916,835
37055,912,835
37060,899,833
37065,891,832
37070,887,831
37075,872,840
37080,862,832
37085,862,837
37090,857,828
37095,838,828
37100,846,836
37105,824,832
37110,826,830
37115,817,825
37120,820,825
37125,805,823
37130,802,819
37135,790,816
37140,785,817
37145,781,813
37150,777,811
37155,779,810
37160,773,815
37165,760,809
37170,763,806
37175,755,807
37180,754,801
37185,758,806
37190,751,799
37195,747,791
37200,747,794
37205,751,786
37210,747,791
37215,739,782
37220,750,778
37225,754,778
37230,751,777
37235,752,776
37240,753,767
37245,759,770
37250,770,761
37255,772,758
37260,775,756
37265,784,751
37270,783,755
37275,799,748
37280,796,747
37285,797,740
37290,808,731
37295,818,735
37300,833,734
37305,836,725
37310,843,726
37315,850,718
37320,848,716
37325,877,718
37330,881,719
37335,888,718
37340,903,714
37345,911,706
37350,920,709
37355,938,703
37360,945,703
37365,952,704
37370,951,700
37375,979,701
37380,990,690
37385,993,692
37390,1003,692
37395,1027,693
37400,1026,694
37405,1037,695
37410,1037,690
37415,1045,696
37420,1056,692
37425,1066,693
37430,1077,700
37435,1087,707
37440,1095,705
37445,1101,701
37450,1109,704
37455,1117,711
37460,1125,701
37465,1131,706
37470,1132,725
37475,1149,720
37480,1150,717
37485,1163,721
37490,1157,722
37495,1167,721
37500,1163,732
37505,1175,734
37510,1174,737
37515,1186,741
37520,1177,740
37525,1182,746
37530,1184,754
37535,1190,750
37540,1187,756
37545,1195,764
37550,1186,766
37555,1187,775
37560,1181,782
37565,1186,778
37570,1189,789
37575,1186,790
37580,1188,790
37585,1195,800
37590,1183,797
37595,1179,800
37600,1181,814
37605,1182,810
37610,1169,820
37615,1183,828
37620,1168,823
37625,1171,834
37630,1173,839
37635,1158,832
37640,1167,844
37645,1160,842
37650,1145,844
37655,1149,853
37660,1150,851
37665,1148,859
37670,1151,858
37675,1142,861
37680,1135,868
37685,1130,862
37690,1131,866
37695,1130,870
37700,1133,867
37705,1125,873
37710,1123,874
37715,1119,879
37720,1121,871
37725,1117,875
37730,1112,880
37735,1111,876
37740,1104,878
37745,1103,871
37750,1104,881
37755,1096,881
37760,1107,880
37765,1100,879
37770,1098,874
37775,1091,877
37780,1091,874
37785,1089,874
37790,1085,877
37795,1087,876
37800,1093,877
37805,1079,875
37810,1081,871
37815,1083,873
37820,1071,868
37825,1070,871
37830,1069,866
37835,1072,865
37840,1062,866
37845,1067,864
37850,1054,862
37855,1059,866
37860,1056,866
37865,1049,859
37870,1056,858
37875,1043,854
37880,1037,858
37885,1032,849
37890,1039,856
37895,1020,854
37900,1026,854
37905,1019,848
37910,1006,851
37915,1011,847
37920,997,850
37925,994,850
37930,995,843
37935,987,848
37940,980,840
37945,965,844
37950,969,838
37955,956,841
37960,952,840
37965,952,837
37970,931,837
37975,929,837
37980,920,837
37985,915,838
37990,903,839
37995,902,834
38000,891,834
38005,877,834
38010,879,834
38015,860,834
38020,859,831
38025,850,823
38030,851,837
38035,835,831
38040,837,831
38045,820,831
38050,820,822
38055,805,824
38060,787,822
38065,797,816
38070,795,820
38075,792,818
38080,784,818
38085,767,813
38090,772,810
38095,779,808
38100,763,811
38105,756,807
38110,761,805
38115,762,800
38120,745,803
38125,759,797
38130,748,792
38135,740,789
38140,739,789
38145,752,788
38150,751,783
38155,748,788
38160,753,773
38165,753,777
38170,760,773
38175,756,769
38180,768,764
38185,762,775
38190,758,760
38195,786,758
38200,783,749
38205,793,753
38210,802,752
38215,800,746
38220,798,743
38225,811,736
38230,819,732
38235,824,727
38240,841,720
38245,845,725
38250,851,726
38255,860,722
38260,877,715
38265,876,717
38270,899,714
38275,904,713
38280,914,709
38285,921,709
38290,926,704
38295,931,702
38300,947,703
38305,962,704
38310,974,701
38315,975,695
38320,993,697
38325,1009,690
38330,1011,696
38335,1023,698
38340,1030,702
38345,1046,698
38350,1054,696
38355,1063,695
38360,1059,695
38365,1081,693
38370,1082,703
38375,1100,697
38380,1107,704
38385,1110,701
38390,1122,704
38395,1128,712
38400,1132,716
38405,1146,708
38410,1137,710
38415,1143,716
38420,1154,716
38425,1156,729
38430,1166,725
38435,1167,728
38440,1170,730
38445,1170,739
38450,1168,741
38455,1178,742
38460,1188,747
38465,1190,752
38470,1189,759
38475,1184,761
38480,1186,761
38485,1193,766
38490,1184,766
38495,1196,778
38500,1186,784
38505,1186,785
38510,1188,783
38515,1185,791
38520,1188,797
38525,1178,803
38530,1186,806
38535,1180,809
38540,1179,818
38545,1180,814
38550,1172,822
38555,1172,828
38560,1167,830
38565,1158,837
38570,1162,835
38575,1162,847
38580,1156,847
38585,1153,847
38590,1156,846
38595,1156,857
38600,1150,853
38605,1135,862
38610,1130,862
38615,1137,864
38620,1135,864
38625,1125,867
38630,1130,868
38635,1122,871
38640,1119,869
38645,1113,867
38650,1122,869
38655,1103,871
38660,1112,877
38665,1110,881
38670,1105,876
38675,1112,882
38680,1101,876
38685,1094,877
38690,1107,878
38695,1102,875
38700,1101,872
38705,1094,880
38710,1093,881
38715,1096,882
38720,1090,876
38725,1100,877
38730,1083,871
38735,1091,878
38740,1085,873
38745,1074,866
38750,1077,873
38755,1083,867
38760,1068,873
38765,1072,864
38770,1068,868
38775,1069,867
38780,1068,865
38785,1067,858
38790,1051,862
38795,1049,863
38800,1053,866
38805,1053,862
38810,1049,855
38815,1045,851
38820,1033,855
38825,1033,848
38830,1032,854
38835,1028,846
38840,1019,847
38845,1016,853
38850,1012,848
38855,996,847
38860,999,847
38865,989,843
38870,979,843
38875,977,844
38880,965,845
38885,968,844
38890,955,840
38895,951,848
38900,948,843
38905,938,836
38910,926,840
38915,923,836
38920,908,841
38925,906,839
38930,900,835
38935,897,832
38940,878,831
38945,876,835
38950,870,828
38955,854,833
38960,855,833
38965,839,829
38970,842,828
38975,836,830
38980,824,826
38985,818,826
38990,810,821
38995,806,820
39000,791,829
39005,788,823
39010,789,821
39015,785,815
39020,774,817
39025,777,813
39030,760,810
39035,753,809
39040,756,809
39045,759,805
39050,754,799
39055,759,795
39060,747,797
39065,743,792
39070,751,796
39075,750,794
39080,748,783
39085,749,778
39090,756,780
39095,745,779
39100,755,768
39105,754,774
39110,749,773
39115,767,773
39120,764,763
39125,763,764
39130,773,759
39135,789,755
39140,786,757
39145,783,745
39150,790,746
39155,800,740
39160,810,734
39165,812,735
39170,823,734
39175,836,727
39180,850,731
39185,854,722
39190,872,720
39195,860,719
39200,885,720
39205,887,717
39210,904,712
39215,918,710
39220,920,702
39225,936,704
39230,940,706
39235,950,702
39240,955,701
39245,970,695
39250,986,695
39255,989,694
39260,1001,697
39265,1008,697
39270,1016,701
39275,1037,695
39280,1045,689
39285,1048,698
39290,1057,693
39295,1077,698
39300,1085,698
39305,1092,702
39310,1096,701
39315,1111,702
39320,1111,704
39325,1106,704
39330,1127,705
39335,1134,711
39340,1144,714
39345,1139,711
39350,1142,718
39355,1152,724
39360,1162,717
39365,1174,728
39370,1170,729
39375,1171,735
39380,1179,733
39385,1180,736
39390,1175,740
39395,1189,748
39400,1187,754
39405,1181,757
39410,1190,761
39415,1191,767
39420,1191,767
39425,1191,772
39430,1187,777
39435,1198,785
39440,1182,781
39445,1189,791
39450,1188,795
39455,1185,797
39460,1181,801
39465,1184,807
39470,1184,805
39475,1169,814
39480,1184,826
39485,1166,824
39490,1172,832
39495,1164,832
39500,1159,824
39505,1164,834
39510,1158,841
39515,1154,840
39520,1160,843
39525,1154,849
39530,1154,854
39535,1144,853
39540,1143,863
39545,1141,862
39550,1130,862
39555,1132,862
39560,1132,863
39565,1129,863
39570,1132,872
39575,1122,871
39580,1118,875
39585,1115,872
39590,1115,875
39595,1112,870
39600,1111,876
39605,1103,876
39610,1110,875
39615,1113,877
39620,1102,875
39625,1095,884
39630,1094,880
39635,1094,881
39640,1102,880
39645,1094,880
39650,1087,878
39655,1090,875
39660,1088,876
39665,1085,874
39670,1081,866
39675,1076,871
39680,1077,876
39685,1076,868
39690,1069,870
39695,1067,872
39700,1076,865
39705,1074,866
39710,1062,864
39715,1070,865
39720,1061,864
39725,1049,860
39730,1055,860
39735,1050,858
39740,1043,855
39745,1038,858
39750,1034,855
39755,1042,851
39760,1029,856
39765,1030,855
39770,1020,852
39775,1020,850
39780,1009,847
39785,1013,848
39790,989,849
39795,1002,851
39800,998,846
39805,989,845
39810,969,844
39815,979,843
39820,973,840
39825,955,845
39830,954,839
39835,952,841
39840,943,841
39845,939,840
39850,922,841
39855,917,835
39860,908,835
39865,896,836
39870,889,833
39875,886,838
39880,876,829
39885,867,833
39890,865,830
39895,852,834
39900,851,826
39905,842,828
39910,822,825
39915,822,825
39920,817,824
39925,811,825
39930,804,820
39935,797,816
39940,788,817
39945,790,816
39950,789,813
39955,780,813
39960,759,810
39965,767,809
39970,762,813
39975,754,807
39980,756,802
39985,758,802
39990,753,796
39995,749,799
40000,749,792
40005,736,791
40010,757,796
40015,756,785
40020,751,786
40025,749,780
40030,748,775
40035,756,777
40040,751,776
40045,761,771
40050,757,765
40055,766,765
40060,764,759
40065,773,756
40070,785,760
40075,787,750
40080,792,742
40085,793,744
40090,805,742
40095,805,733
40100,816,737
40105,820,733
40110,833,733
40115,838,731
40120,851,726
40125,857,719
40130,869,717
40135,877,715
40140,884,712
40145,895,708
40150,920,710
40155,928,712
40160,920,702
40165,940,706
40170,950,704
40175,959,696
40180,965,697
40185,986,696
40190,996,698
40195,1004,696
40200,1007,698
40205,1015,699
40210,1020,696
40215,1043,699
40220,1059,689
40225,1060,692
40230,1071,697
40235,1084,697
40240,1083,700
40245,1090,697
40250,1100,704
40255,1109,702
40260,1118,706
40265,1122,708
40270,1135,706
40275,1131,712
40280,1151,713
40285,1154,712
40290,1157,718
40295,1152,719
40300,1166,724
40305,1170,726
40310,1169,734
40315,1165,732
40320,1176,736
40325,1183,745
40330,1182,747
40335,1189,750
40340,1191,755
40345,1183,761
40350,1182,764
40355,1181,766
40360,1190,773
40365,1186,780
40370,1188,786
40375,1192,783
40380,1185,791
40385,1184,794
40390,1177,796
40395,1183,802
40400,1184,809
40405,1182,816
40410,1170,813
40415,1172,816
40420,1179,829
40425,1171,826
40430,1165,832
40435,1161,832
40440,1159,831
40445,1167,840
40450,1156,842
40455,1150,843
40460,1152,845
40465,1149,850
40470,1147,853
40475,1144,855
40480,1138,854
40485,1134,862
40490,1130,859
40495,1129,869
40500,1129,873
40505,1115,871
40510,1126,868
40515,1122,871
40520,1113,875
40525,1115,877
40530,1114,874
40535,1109,879
40540,1112,873
40545,1119,879
40550,1107,870
40555,1102,886
40560,1092,880
40565,1097,873
40570,1104,875
40575,1099,874
40580,1089,881
40585,1094,877
40590,1091,870
40595,1093,876
40600,1088,876
40605,1087,876
40610,1081,874
40615,1083,873
40620,1082,872
40625,1073,872
40630,1079,870
40635,1077,864
40640,1063,866
40645,1066,868
40650,1064,863
40655,1061,862
40660,1056,860
40665,1061,856
40670,1045,862
40675,1054,858
40680,1051,857
40685,1045,849
40690,1034,856
40695,1033,856
40700,1031,853
40705,1021,851
40710,1020,850
40715,1019,850
40720,1009,853
40725,998,848
40730,997,845
40735,996,841
40740,987,843
40745,976,842
40750,971,840
40755,970,845
40760,963,840
40765,948,844
40770,946,838
40775,943,840
40780,924,840
40785,911,836
40790,912,835
40795,906,835
40800,901,833
40805,900,836
40810,879,834
40815,874,831
40820,871,838
40825,861,833
40830,850,826
40835,852,830
40840,838,827
40845,832,830
40850,818,821
40855,822,822
40860,814,823
40865,806,820
40870,804,818
40875,797,821
40880,794,816
40885,790,819
40890,776,815
40895,769,815
40900,767,816
40905,767,808
40910,764,815
40915,767,804
40920,749,803
40925,746,803
40930,749,795
40935,750,792
40940,743,794
40945,753,786
40950,752,788
40955,750,780
40960,751,788
40965,744,774
40970,767,777
40975,764,773
40980,761,771
40985,758,769
40990,767,766
40995,769,763
