timestamp_ms,ir_finger,ir_toe
0,1037,775
5,1053,779
10,1073,772
15,1074,776
20,1088,773
25,1093,763
30,1104,771
35,1104,772
40,1132,768
45,1131,767
50,1144,767
55,1154,761
60,1155,767
65,1164,763
70,1163,759
75,1159,766
80,1175,760
85,1178,759
90,1182,760
95,1177,761
100,1185,756
105,1183,760
110,1176,754
115,1186,756
120,1189,769
125,1177,758
130,1188,757
135,1185,763
140,1183,764
145,1185,762
150,1177,766
155,1176,769
160,1177,764
165,1168,767
170,1172,773
175,1158,773
180,1161,777
185,1160,771
190,1159,774
195,1153,779
200,1145,783
205,1145,781
210,1150,782
215,1128,785
220,1136,789
225,1134,790
230,1128,792
235,1127,794
240,1115,792
245,1124,796
250,1111,803
255,1115,802
260,1108,805
265,1106,814
270,1107,808
275,1111,811
280,1103,813
285,1109,811
290,1094,808
295,1102,819
300,1094,817
305,1083,823
310,1093,819
315,1082,819
320,1083,826
325,1078,825
330,1081,822
335,1075,828
340,1068,824
345,1072,827
350,1060,828
355,1058,829
360,1060,827
365,1053,830
370,1047,828
375,1046,823
380,1043,826
385,1037,829
390,1017,829
395,1022,831
400,1019,825
405,1016,830
410,1000,835
415,1002,826
420,996,821
425,984,823
430,977,825
435,970,825
440,969,825
445,945,825
450,946,829
455,942,824
460,923,829
465,911,822
470,910,825
475,901,816
480,888,819
485,875,820
490,864,821
495,848,822
500,849,824
505,847,820
510,827,819
515,821,818
520,816,814
525,803,816
530,791,812
535,789,816
540,781,818
545,775,816
550,772,813
555,775,816
560,757,814
565,756,819
570,752,815
575,746,814
580,759,812
585,761,815
590,749,814
595,753,810
600,754,813
605,751,814
610,747,803
615,752,807
620,751,808
625,763,807
630,764,808
635,770,813
640,775,805
645,792,809
650,792,806
655,809,804
660,814,806
665,815,805
670,833,799
675,846,799
680,850,801
685,870,800
690,868,795
695,891,799
700,906,793
705,919,793
710,926,796
715,934,787
720,961,792
725,955,784
730,975,783
735,993,783
740,995,781
745,1009,786
750,1021,782
755,1029,777
760,1051,781
765,1062,771
770,1074,776
775,1076,778
780,1094,772
785,1103,768
790,1109,771
795,1123,771
800,1131,772
805,1148,767
810,1152,772
815,1148,762
820,1153,766
825,1161,761
830,1161,763
835,1173,763
840,1187,757
845,1179,759
850,1186,759
855,1185,757
860,1183,756
865,1190,759
870,1190,757
875,1198,758
880,1192,760
885,1179,765
890,1176,766
895,1187,763
900,1179,763
905,1182,765
910,1174,766
915,1176,767
920,1174,766
925,1165,773
930,1170,770
935,1157,773
940,1154,777
945,1156,780
950,1151,783
955,1150,784
960,1154,779
965,1154,781
970,1140,786
975,1138,786
980,1136,789
985,1125,788
990,1124,795
995,1128,796
1000,1119,797
1004,1120,799
1010,1119,803
1014,1119,800
1020,1105,806
1025,1108,799
1030,1105,808
1035,1095,812
1040,1107,813
1045,1105,816
1050,1098,815
1055,1097,817
1060,1093,819
1065,1086,821
1070,1084,824
1075,1081,827
1080,1069,828
1085,1070,823
1090,1070,827
1095,1074,822
1100,1074,828
1105,1063,826
1110,1068,825
1115,1054,830
1120,1053,827
1125,1044,831
1130,1046,831
1135,1046,828
1140,1032,828
1145,1036,825
1150,1032,830
1155,1022,826
1160,1019,837
1165,1011,829
1170,1010,832
1175,997,830
1180,977,832
1185,981,827
1190,978,831
1195,963,827
1200,960,823
1205,948,826
1210,932,819
1215,930,828
1220,923,825
1225,916,823
1230,893,826
1235,892,824
1240,876,827
1245,878,822
1250,870,820
1255,844,824
1260,841,822
1265,841,824
1270,834,825
1275,823,820
1280,803,813
1285,810,815
1290,794,813
1295,785,812
1300,774,816
1305,779,815
1310,779,814
1315,766,815
1320,769,815
1325,754,815
1330,754,810
1335,753,817
1340,749,805
1345,753,809
1350,749,808
1355,742,812
1360,744,810
1365,759,810
1370,754,812
1375,758,805
1380,757,805
1385,761,806
1390,767,802
1395,770,809
1400,795,806
1405,789,806
1410,801,807
1415,812,805
1420,822,809
1425,829,803
1430,832,803
1435,853,801
1440,861,799
1445,871,793
1450,880,800
1455,887,793
1460,907,792
1465,916,794
1470,924,794
1475,947,793
1480,951,790
1485,968,789
1490,981,789
1495,996,782
1500,1000,780
1505,1015,783
1510,1031,778
1515,1049,776
1520,1054,776
1525,1072,774
1530,1078,778
1535,1086,777
1540,1092,772
1545,1112,769
1550,1121,764
1555,1126,770
1560,1129,769
1565,1132,760
1570,1147,765
1575,1149,766
1580,1158,764
1585,1170,766
1590,1174,765
1595,1173,759
1600,1186,757
1605,1190,759
1610,1182,755
1615,1187,759
1620,1178,757
1625,1186,760
1630,1198,759
1635,1188,758
1640,1190,763
1645,1188,763
1650,1183,759
1655,1192,759
1660,1177,761
1665,1177,766
1670,1175,766
1675,1177,769
1680,1171,767
1685,1160,770
1690,1169,767
1695,1169,769
1700,1155,772
1705,1147,781
1710,1155,779
1715,1146,782
1720,1144,777
1725,1134,789
1730,1131,787
1735,1135,791
1740,1126,787
1745,1131,790
1750,1133,797
1755,1132,794
1760,1118,799
1765,1125,799
1770,1112,806
1775,1105,801
1780,1115,812
1785,1106,804
1790,1114,811
1795,1098,808
1800,1096,817
1805,1093,811
1810,1088,812
1815,1086,821
1820,1088,819
1825,1093,822
1830,1094,821
1835,1093,820
1840,1080,829
1845,1083,830
1850,1073,823
1855,1070,820
1860,1069,829
1865,1071,831
1870,1062,828
1875,1052,826
1880,1055,829
1885,1056,835
1890,1054,831
1895,1041,828
1900,1040,829
1905,1033,830
1910,1028,824
1915,1014,828
1920,1005,833
1925,1007,827
1930,993,826
1935,993,828
1940,981,827
1945,980,827
1950,963,831
1955,958,823
1960,951,823
1965,945,827
1970,931,827
1975,918,822
1980,924,826
1985,905,821
1990,902,821
1995,894,823
2000,878,821
2005,877,821
2009,856,824
2015,847,817
2020,833,823
2025,836,817
2029,826,819
2035,816,820
2040,810,818
2045,802,818
2050,793,819
2055,786,816
2060,783,815
2065,774,808
2070,774,816
2075,761,815
2080,755,812
2085,753,818
2090,756,814
2095,750,808
2100,756,810
2105,737,817
2110,749,811
2115,752,811
2120,749,814
2125,750,811
2130,745,809
2135,756,811
2140,771,806
2145,766,808
2150,767,809
2155,785,809
2160,791,808
2165,793,808
2170,804,804
2175,815,805
2180,824,805
2185,831,799
2190,842,800
2195,856,795
2200,868,797
2205,878,793
2210,890,799
2215,893,791
2220,911,794
2225,925,796
2230,941,793
2235,956,793
2240,963,786
2245,979,786
2250,990,785
2255,1012,783
2260,1018,785
2265,1027,781
2270,1036,776
2275,1042,778
2280,1062,782
2285,1075,771
2290,1085,773
2295,1098,772
2300,1104,772
2305,1105,770
2310,1120,770
2315,1133,766
2320,1138,768
2325,1139,764
2330,1148,763
2335,1160,758
2340,1164,763
2345,1160,764
2350,1164,756
2355,1181,758
2360,1179,760
2365,1173,753
2370,1181,759
2375,1185,761
2380,1191,761
2385,1190,765
2390,1187,765
2395,1190,762
2400,1184,759
2405,1182,756
2410,1185,760
2415,1185,760
2420,1181,769
2425,1187,767
2430,1176,764
2435,1174,769
2440,1166,766
2445,1169,770
2450,1162,773
2455,1160,779
2460,1163,772
2465,1151,780
2470,1159,782
2475,1144,780
2480,1135,781
2485,1139,786
2490,1130,787
2495,1147,790
2500,1129,792
2505,1126,795
2510,1122,788
2515,1117,801
2520,1116,797
2525,1117,803
2530,1108,801
2535,1109,809
2540,1107,809
2545,1103,810
2550,1105,809
2555,1104,810
2560,1098,812
2565,1095,816
2570,1094,817
2575,1095,818
2580,1096,825
2585,1081,818
2590,1078,820
2595,1078,826
2600,1064,824
2605,1079,825
2610,1073,822
2615,1075,830
2620,1068,824
2625,1065,828
2630,1067,827
2635,1054,827
2640,1048,826
2645,1045,829
2650,1043,829
2655,1037,827
2660,1036,831
2665,1029,829
2670,1016,830
2675,1017,823
2680,1005,831
2685,1004,832
2690,986,827
2695,981,822
2700,978,827
2705,968,827
2710,967,826
2715,956,822
2720,955,822
2725,941,826
2730,925,827
2735,921,824
2740,906,819
2745,901,826
2750,891,818
2755,884,823
2760,872,824
2765,860,819
2770,854,820
2775,843,823
2780,830,819
2785,835,815
2790,824,817
2795,813,813
2800,807,818
2805,796,811
2810,787,814
2815,775,819
2820,774,819
2825,772,812
2830,771,813
2835,758,813
2840,761,811
2845,759,819
2850,750,810
2855,754,813
2860,751,814
2865,752,810
2870,735,809
2875,758,810
2880,757,807
2885,745,811
2890,763,806
2895,771,818
2900,774,806
2905,772,805
2910,780,809
2915,789,807
2920,785,806
2925,812,806
2930,803,800
2935,813,803
2940,821,805
2945,836,807
2950,847,804
2955,867,797
2960,876,797
2965,876,793
2970,895,795
2975,905,793
2980,925,794
2985,933,795
2990,945,791
2995,957,788
3000,971,787
3005,981,788
3010,1001,779
3015,1007,785
3020,1018,782
3025,1025,775
3030,1041,783
3035,1058,779
3040,1061,775
3045,1077,772
3050,1085,770
3055,1098,774
3060,1109,774
3065,1118,770
3070,1122,765
3075,1131,765
3080,1136,768
3085,1151,760
3090,1153,767
3095,1156,760
3100,1162,764
3105,1172,762
3110,1177,767
3115,1177,757
3120,1179,762
3125,1188,757
3130,1176,762
3135,1181,757
3140,1187,759
3145,1197,760
3150,1182,767
3155,1197,753
3160,1189,764
3165,1183,760
3170,1181,770
3175,1187,763
3180,1179,768
3185,1178,771
3190,1169,768
3195,1170,767
3200,1165,772
3205,1165,772
3210,1168,773
3215,1160,771
3220,1156,774
3225,1155,773
3230,1148,780
3235,1146,784
3240,1136,781
3245,1135,784
3250,1138,788
3255,1131,791
3260,1120,790
3265,1125,793
3270,1121,796
3275,1120,800
3280,1115,806
3285,1110,798
3290,1107,805
3295,1096,809
3300,1104,805
3305,1104,813
3310,1096,810
3315,1100,815
3320,1103,814
3325,1087,816
3330,1096,818
3335,1093,816
3340,1082,824
3345,1093,820
3350,1081,821
3355,1085,821
3360,1068,821
3365,1073,826
3370,1073,826
3375,1071,831
3380,1071,827
3385,1063,830
3390,1055,827
3395,1061,828
3400,1051,825
3405,1040,826
3410,1037,828
3415,1030,830
3420,1028,826
3425,1016,827
3430,1023,825
3435,1016,825
3440,1005,830
3445,1001,829
3450,991,831
3455,987,827
3460,975,829
3465,970,828
3470,961,827
3475,958,829
3480,944,829
3485,929,820
3490,916,827
3495,907,826
3500,897,826
3505,900,827
3510,883,821
3515,869,818
3520,868,819
3525,856,819
3530,852,821
3535,839,821
3540,834,821
3545,826,816
3550,817,815
3555,801,822
3560,799,815
3565,791,816
3570,781,812
3575,780,814
3580,776,815
3585,773,817
3590,767,815
3595,751,817
3600,762,814
3605,756,809
3610,752,818
3615,751,815
3620,755,810
3625,745,809
3630,754,806
3635,743,812
3640,755,807
3645,750,812
3650,762,811
3655,763,813
3660,767,807
3665,778,809
3670,790,806
3675,790,803
3680,795,806
3685,811,805
3690,810,799
3695,817,802
3700,819,800
3705,844,803
3710,859,799
3715,865,793
3720,874,801
3725,881,794
3730,899,797
3735,918,793
3740,923,788
3745,941,788
3750,956,793
3755,967,788
3760,984,788
3765,996,786
3770,997,785
3775,1014,783
3780,1018,783
3785,1041,777
3790,1044,778
3795,1059,781
3800,1073,775
3805,1082,776
3810,1096,773
3815,1110,776
3820,1114,768
3825,1114,769
3830,1132,770
3835,1134,773
3840,1150,766
3845,1154,758
3850,1156,761
3855,1165,769
3860,1162,763
3865,1178,759
3870,1174,765
3875,1180,760
3880,1190,761
3885,1184,761
3890,1193,762
3895,1184,760
3900,1196,762
3905,1198,759
3910,1190,759
3915,1191,764
3920,1181,764
3925,1179,766
3930,1185,761
3935,1177,768
3940,1185,768
3945,1173,760
3950,1178,767
3955,1167,766
3960,1171,772
3965,1159,775
3970,1160,772
3975,1153,778
3980,1144,778
3985,1145,784
3990,1150,782
3995,1139,783
4000,1131,790
4005,1131,787
4010,1132,788
4014,1139,791
4019,1120,793
4025,1120,802
4030,1124,796
4035,1122,800
4040,1113,799
4045,1104,805
4050,1114,802
4054,1114,802
4059,1101,811
4065,1095,813
4070,1101,816
4075,1092,815
4080,1101,819
4085,1095,820
4090,1089,814
4094,1082,819
4100,1078,825
4105,1091,824
4110,1066,831
4115,1067,824
4120,1079,826
4125,1080,827
4130,1069,830
4135,1067,832
4140,1056,825
4145,1055,829
4150,1058,826
4155,1052,830
4160,1050,827
4165,1046,823
4170,1042,830
4175,1032,831
4180,1038,827
4185,1026,828
4190,1017,832
4195,1007,833
4200,1002,831
4205,994,831
4210,980,828
4215,975,823
4220,967,830
4225,963,833
4230,953,828
4235,945,824
4240,943,827
4245,927,823
4250,917,824
4255,921,825
4260,902,822
4265,892,822
4270,879,823
4275,874,818
4280,865,821
4285,843,822
4290,849,819
4295,840,822
4300,829,819
4305,821,817
4310,809,815
4315,793,818
4320,799,818
4325,792,816
4330,784,814
4335,772,815
4340,770,813
4345,773,818
4350,751,813
4355,760,816
4360,761,809
4365,744,810
4370,752,812
4375,750,810
4380,736,814
4385,743,809
4390,748,815
4395,755,810
4400,752,813
4405,751,807
4410,767,808
4415,769,806
4420,773,808
4425,780,806
4430,790,804
4435,789,802
4440,800,804
4445,815,802
4450,819,799
4455,832,806
4460,838,797
4465,846,799
4470,859,804
4475,872,799
4480,876,799
4485,898,794
4490,907,795
4495,919,794
4500,932,796
4505,948,785
4510,972,782
4515,966,793
4520,986,787
4525,995,783
4530,1000,780
4535,1027,779
4540,1041,777
4545,1049,781
4550,1049,773
4555,1073,777
4560,1078,778
4565,1098,768
4570,1096,769
4575,1110,767
4580,1127,766
4585,1122,765
4590,1139,764
4595,1143,766
4600,1154,762
4605,1157,764
4610,1162,765
4615,1163,761
4620,1179,765
4625,1177,761
4630,1165,757
4635,1187,761
4640,1182,757
4645,1186,765
4650,1180,757
4655,1187,759
4660,1178,759
4665,1198,765
4670,1188,763
4675,1186,762
4680,1189,768
4685,1187,763
4690,1181,765
4695,1177,761
4700,1184,770
4705,1168,769
4710,1177,768
4715,1167,765
4720,1160,773
4725,1174,770
4730,1163,775
4735,1148,780
4740,1156,776
4745,1147,785
4750,1142,784
4755,1142,786
4760,1133,787
4765,1133,790
4770,1135,787
4775,1131,796
4780,1127,796
4785,1128,797
4790,1125,796
4795,1113,802
4800,1108,798
4805,1108,807
4810,1112,802
4815,1107,806
4820,1106,810
4825,1102,810
4830,1100,817
4835,1102,821
4840,1092,816
4845,1101,818
4850,1094,820
4855,1094,815
4860,1081,819
4865,1085,817
4870,1076,824
4875,1071,824
4880,1075,829
4885,1074,828
4890,1067,831
4895,1069,833
4900,1063,828
4905,1055,821
4910,1053,830
4915,1064,827
4920,1046,830
4925,1042,827
4930,1031,838
4935,1022,830
4940,1025,829
4945,1007,829
4950,1017,831
4955,1002,828
4960,1002,826
4965,987,828
4970,984,824
4975,969,826
4980,969,823
4985,953,828
4990,943,823
4995,935,824
5000,928,821
5005,930,827
5010,918,824
5015,898,824
5020,893,820
5025,883,818
5030,885,823
5035,869,820
5040,860,819
5045,839,814
5050,835,819
5055,819,809
5060,827,823
5065,820,818
5070,810,814
5075,791,811
5080,786,818
5085,785,814
5090,774,814
5095,771,815
5100,768,812
5105,756,809
5110,762,813
5115,750,813
5120,756,811
5125,750,813
5130,739,815
5135,740,814
5140,744,809
5145,751,810
5150,748,809
5155,754,804
5160,754,806
5165,758,810
5170,764,806
5175,767,808
5180,772,805
5185,789,810
5190,787,807
5195,795,803
5200,806,804
5205,822,804
5210,818,804
5215,833,801
5220,839,801
5225,852,801
5230,866,801
5235,874,806
5240,886,795
5245,901,793
5250,917,789
5255,935,789
5260,926,793
5265,954,789
5270,964,790
5275,984,783
5280,983,785
5285,1006,788
5290,1019,779
5295,1032,779
5300,1034,781
5305,1054,781
5310,1064,774
5315,1075,775
5320,1084,774
5325,1087,777
5330,1106,772
5335,1119,770
5340,1120,772
5345,1133,766
5350,1142,767
5355,1136,765
5360,1155,763
5365,1153,759
5370,1166,763
5375,1162,760
5380,1167,761
5385,1177,758
5390,1178,758
5395,1184,765
5400,1180,762
5405,1191,756
5410,1178,769
5415,1188,765
5420,1182,761
5425,1185,765
5430,1193,756
5435,1183,769
5440,1187,770
5445,1178,762
5450,1179,765
5455,1175,767
5460,1178,769
5465,1174,766
5470,1163,772
5475,1164,767
5480,1168,768
5485,1160,775
5490,1155,777
5495,1148,779
5500,1154,779
5505,1151,780
5510,1140,783
5515,1127,783
5520,1138,782
5525,1129,791
5530,1118,795
5535,1126,795
5540,1127,797
5545,1123,797
5550,1116,797
5555,1119,804
5560,1118,799
5565,1115,808
5570,1113,805
5575,1110,810
5580,1103,810
5585,1090,811
5590,1098,813
5595,1091,819
5600,1095,819
5605,1085,819
5610,1080,819
5615,1088,819
5620,1081,824
5625,1080,824
5630,1081,826
5635,1084,821
5640,1066,833
5645,1073,824
5650,1071,827
5655,1058,831
5660,1061,826
5665,1052,828
5670,1047,832
5675,1055,825
5680,1045,824
5685,1032,824
5690,1041,826
5695,1025,827
5700,1021,830
5705,1014,828
5710,1013,831
5715,995,830
5720,1001,825
5725,983,830
5730,988,829
5735,979,823
5740,956,823
5745,952,826
5750,943,831
5755,934,819
5760,928,823
5765,916,825
5770,905,825
5775,901,825
5780,883,813
5785,873,818
5790,872,821
5795,850,816
5800,859,819
5805,840,819
5810,827,823
5815,827,821
5820,824,814
5825,808,814
5830,799,811
5835,801,817
5840,795,815
5845,782,817
5850,766,817
5855,770,814
5860,759,813
5865,759,810
5870,758,817
5875,756,817
5880,751,814
5885,748,811
5890,750,812
5895,749,810
5900,744,804
5905,751,812
5910,757,812
5915,754,806
5920,760,812
5925,763,809
5930,771,808
5935,771,807
5940,782,809
5945,785,807
5950,785,803
5955,796,806
5960,816,805
5965,819,802
5970,834,803
5975,842,801
5980,848,800
5985,864,803
5990,873,799
5995,886,798
6000,895,797
6005,912,799
6010,921,797
6015,932,791
6020,950,793
6025,954,795
6030,972,789
6035,991,784
6040,996,786
6045,1010,784
6050,1019,781
6055,1043,779
6060,1051,778
6065,1056,777
6070,1070,775
6075,1075,781
6080,1086,773
6085,1100,773
6090,1107,764
6095,1121,776
6100,1127,771
6105,1130,760
6110,1148,765
6115,1142,762
6120,1155,771
6125,1159,760
6130,1166,763
6135,1162,753
6140,1176,765
6145,1180,763
6150,1183,759
6155,1182,761
6160,1182,762
6165,1185,761
6170,1185,763
6175,1190,761
6180,1180,756
6185,1179,758
6190,1188,762
6195,1180,766
6200,1180,760
6205,1189,767
6210,1177,767
6215,1173,770
6220,1185,770
6225,1171,762
6230,1173,766
6235,1163,769
6240,1166,771
6245,1160,774
6250,1156,778
6255,1147,774
6260,1153,782
6265,1150,786
6270,1135,785
6275,1137,784
6280,1139,788
6285,1129,789
6290,1129,790
6295,1117,795
6300,1120,791
6305,1122,797
6310,1114,801
6315,1117,805
6320,1116,809
6325,1106,804
6330,1106,811
6335,1103,808
6340,1105,813
6345,1098,813
6350,1103,811
6355,1089,816
6360,1089,815
6365,1086,821
6370,1088,818
6375,1088,822
6380,1078,823
6385,1084,830
6390,1079,827
6395,1071,824
6400,1065,825
6405,1075,826
6410,1067,831
6415,1064,824
6420,1062,826
6425,1054,829
6430,1048,826
6435,1044,827
6440,1049,829
6445,1032,831
6450,1020,830
6455,1019,826
6460,1015,829
6465,1011,829
6470,999,830
6475,998,830
6480,983,832
6485,987,825
6490,962,826
6495,967,829
6500,957,827
6505,949,829
6510,933,827
6515,925,821
6520,920,822
6525,908,822
6530,903,823
6535,887,825
6540,890,821
6545,874,823
6550,859,825
6555,854,819
6560,847,819
6565,842,822
6570,823,823
6575,827,821
6580,814,818
6585,803,813
6590,795,815
6595,790,816
6600,781,815
6605,774,821
6610,774,817
6615,771,811
6620,763,815
6625,746,816
6630,755,813
6635,753,814
6640,749,814
6645,750,815
6650,753,812
6655,747,812
6660,747,817
6665,748,808
6670,745,815
6675,754,807
6680,758,815
6685,767,805
6690,759,808
6695,776,808
6700,780,810
6705,796,807
6710,790,806
6715,809,805
6720,814,801
6725,823,804
6730,836,801
6735,850,803
6740,857,800
6745,863,799
6750,878,798
6755,883,793
6760,893,793
6765,901,797
6770,937,791
6775,941,787
6780,954,784
6785,957,789
6790,982,792
6795,994,784
6800,1010,783
6805,1020,781
6810,1027,781
6815,1035,779
6820,1054,775
6825,1065,777
6830,1077,777
6835,1080,768
6840,1099,770
6845,1108,770
6850,1111,771
6855,1119,763
6860,1134,766
6865,1141,763
6870,1152,764
6875,1154,759
6880,1162,763
6885,1173,761
6890,1173,762
6895,1159,759
6900,1174,760
6905,1175,760
6910,1182,760
6915,1182,763
6920,1185,761
6925,1185,760
6930,1184,762
6935,1187,765
6940,1190,761
6945,1189,760
6950,1189,762
6955,1176,758
6960,1185,767
6965,1182,766
6970,1180,769
6975,1178,764
6980,1170,770
6985,1177,767
6990,1177,765
6995,1169,774
7000,1162,770
7005,1154,771
7010,1159,776
7015,1157,778
7020,1152,781
7025,1136,787
7030,1138,785
7035,1129,790
7040,1133,792
7045,1130,795
7050,1129,788
7055,1121,794
7060,1121,792
7065,1125,797
7070,1106,800
7075,1109,804
7080,1101,810
7085,1102,806
7090,1100,805
7095,1096,812
7100,1095,814
7105,1099,818
7110,1086,814
7115,1094,816
7120,1090,821
7125,1084,820
7130,1094,821
7135,1083,827
7140,1083,821
7145,1075,825
7150,1070,830
7155,1066,835
7160,1068,825
7165,1064,820
7170,1063,825
7175,1058,823
7180,1058,830
7185,1041,829
7190,1051,835
7195,1035,831
7200,1025,831
7205,1034,832
7210,1035,832
7215,1018,825
7220,1010,830
7225,1012,832
7230,998,829
7235,995,826
7240,981,824
7245,980,828
7250,965,827
7255,959,826
7260,956,826
7265,945,825
7270,931,827
7275,927,822
7280,918,825
7285,901,827
7290,903,819
7295,899,820
7300,870,817
7305,871,817
7310,854,822
7315,855,822
7320,847,820
7325,837,818
7330,823,820
7335,822,818
7340,800,821
7345,805,812
7350,789,811
7355,786,821
7360,787,813
7365,777,818
7370,764,812
7375,779,819
7380,763,814
7385,752,815
7390,761,813
7395,746,812
7400,742,809
7405,743,816
7410,751,810
7415,759,811
7420,754,812
7425,748,810
7430,751,809
7435,752,813
7440,771,805
7445,774,810
7450,767,811
7455,781,807
7460,794,805
7465,796,803
7470,809,806
7475,808,799
7480,817,801
7485,827,805
7490,840,803
7495,853,798
7500,864,800
7505,878,796
7510,891,795
7515,897,802
7520,914,792
7525,928,792
7530,934,788
7535,945,793
7540,959,787
7545,971,791
7550,981,781
7555,1000,783
7560,1010,779
7565,1022,784
7570,1035,776
7575,1053,777
7580,1053,779
7585,1071,773
7590,1087,769
7595,1092,770
7600,1097,770
7605,1110,770
7610,1121,773
7615,1126,768
7620,1139,765
7625,1139,769
7630,1156,766
7635,1157,761
7640,1156,764
7645,1167,767
7650,1173,763
7655,1174,761
7660,1173,753
7665,1189,757
7670,1188,758
7675,1189,758
7680,1191,762
7685,1188,761
7690,1201,765
7695,1189,761
7700,1190,757
7705,1188,762
7710,1188,764
7715,1189,760
7720,1180,763
7725,1183,766
7730,1180,764
7735,1169,774
7740,1169,774
7745,1170,768
7750,1161,767
7755,1166,777
7760,1164,774
7765,1151,777
7770,1150,777
7775,1151,785
7780,1149,779
7785,1139,786
7790,1144,784
7795,1133,787
7800,1135,786
7805,1125,796
7810,1122,795
7815,1122,797
7820,1120,798
7825,1112,801
7830,1119,801
7835,1109,805
7840,1101,807
7845,1111,810
7850,1102,807
7855,1103,813
7860,1093,815
7865,1100,819
7870,1091,816
7875,1088,817
7880,1085,821
7885,1088,816
7890,1083,817
7895,1088,826
7900,1080,824
7905,1074,830
7910,1069,828
7915,1067,828
7920,1075,827
7925,1062,822
7930,1063,834
7935,1063,824
7940,1054,832
7945,1038,830
7950,1050,825
7955,1032,829
7960,1031,831
7965,1036,826
7970,1025,825
7975,1018,833
7980,1012,832
7985,1008,827
7990,1002,832
7995,985,828
8000,984,824
8005,968,826
8010,967,821
8015,963,824
8020,946,830
8025,945,822
8029,935,829
8035,917,825
8039,921,821
8045,899,820
8050,903,818
8055,882,817
8060,880,821
8064,854,816
8070,855,818
8074,849,823
8080,844,818
8085,829,816
8090,815,819
8095,808,815
8100,813,814
8105,804,814
8109,793,812
8115,779,814
8119,768,817
8125,769,818
8130,759,819
8135,764,811
8140,761,814
8145,749,810
8150,762,813
8154,753,812
8160,735,813
8164,745,817
8170,759,811
8175,750,813
8180,749,817
8185,762,816
8189,755,809
8195,763,811
8200,761,812
8205,779,807
8210,774,811
8215,775,813
8220,793,805
8225,800,805
8230,809,805
8235,814,799
8240,828,804
8245,834,799
8250,837,797
8255,846,800
8260,862,801
8265,882,799
8270,894,792
8275,899,796
8280,920,795
8285,931,784
8290,933,791
8295,952,785
8300,963,787
8305,980,787
8310,990,782
8315,1003,783
8320,1020,784
8325,1033,783
8330,1045,772
8335,1059,777
8340,1066,777
8345,1073,777
8350,1092,776
8355,1100,770
8360,1109,769
8365,1118,770
8370,1122,771
8375,1124,767
8380,1135,764
8385,1145,765
8390,1152,763
8395,1157,768
8400,1164,764
8405,1173,760
8410,1170,757
8415,1182,759
8420,1184,763
8425,1182,761
8430,1182,762
8435,1189,761
8440,1189,758
8445,1189,754
8450,1198,757
8455,1196,760
8460,1187,759
8465,1186,761
8470,1177,763
8475,1179,769
8480,1182,761
8485,1182,769
8490,1172,767
8495,1168,770
8500,1168,771
8505,1156,766
8510,1160,767
8515,1156,781
8520,1157,774
8525,1155,777
8530,1152,777
8535,1149,786
8540,1136,787
8545,1142,788
8550,1135,784
8555,1142,789
8560,1126,794
8565,1120,791
8570,1127,796
8575,1128,797
8580,1118,801
8585,1108,799
8590,1106,804
8595,1106,806
8600,1110,804
8605,1103,808
8610,1096,808
8615,1100,806
8620,1090,817
8625,1093,817
8630,1095,813
8635,1083,815
8640,1079,827
8645,1085,819
8650,1076,823
8655,1080,825
8660,1077,820
8665,1078,830
8670,1071,825
8675,1071,827
8680,1069,825
8685,1056,830
8690,1054,829
8695,1052,830
8700,1058,822
8705,1049,828
8710,1037,827
8715,1036,828
8720,1032,828
8725,1021,828
8730,1012,826
8735,1017,829
8740,1006,830
8745,1004,832
8750,988,830
8755,986,820
8760,974,830
8765,975,828
8770,964,831
8775,964,821
8780,947,823
8785,929,828
8790,933,827
8795,919,823
8800,907,821
8805,894,817
8810,890,817
8815,883,822
8820,865,823
8825,863,820
8830,854,823
8835,835,822
8840,823,822
8845,823,815
8850,826,818
8855,817,821
8860,798,813
8865,802,820
8870,779,809
8875,776,815
8880,773,815
8885,760,816
8890,764,808
8895,751,808
8900,755,815
8905,757,813
8910,745,813
8915,742,815
8920,750,813
8925,754,812
8930,755,813
8935,761,814
8940,757,811
8945,749,809
8950,749,813
8955,766,812
8960,762,807
8965,776,808
8970,782,805
8975,790,811
8980,801,803
8985,800,804
8990,809,808
8995,810,807
9000,828,804
9005,836,803
9010,852,801
9015,866,796
9020,874,799
9025,899,798
9030,912,800
9035,906,792
9040,928,791
9045,935,794
9050,948,789
9055,962,791
9060,980,789
9065,989,787
9070,997,780
9075,1007,789
9080,1032,785
9085,1037,775
9090,1041,781
9095,1062,777
9100,1069,773
9105,1074,775
9110,1091,773
9115,1098,776
9120,1110,773
9125,1119,767
9130,1132,768
9135,1131,769
9140,1140,764
9145,1144,764
9150,1152,764
9155,1159,763
9160,1169,765
9165,1172,760
9170,1175,762
9175,1178,763
9180,1175,751
9185,1177,760
9190,1189,761
9195,1188,764
9200,1184,757
9205,1186,760
9210,1184,761
9215,1184,760
9220,1193,761
9225,1186,761
9230,1179,760
9235,1189,765
9240,1179,765
9245,1176,766
9250,1176,770
9255,1169,767
9260,1171,768
9265,1165,768
9270,1162,774
9275,1153,773
9280,1154,777
9285,1148,776
9290,1142,783
9295,1146,783
9300,1139,786
9305,1135,791
9310,1133,791
9315,1130,790
9320,1128,793
9325,1123,795
9330,1127,795
9335,1116,800
9340,1113,797
9345,1113,800
9350,1110,805
9355,1098,805
9360,1116,808
9365,1103,811
9370,1100,810
9375,1095,814
9380,1097,813
9385,1090,819
9390,1087,818
9395,1090,824
9400,1083,822
9405,1089,824
9410,1084,818
9415,1087,821
9420,1083,820
9425,1065,827
9430,1078,825
9435,1068,826
9440,1069,824
9445,1055,830
9450,1059,828
9455,1042,826
9460,1042,825
9465,1041,826
9470,1040,831
9475,1038,832
9480,1026,826
9485,1024,825
9490,1014,830
9495,1009,827
9500,1002,831
9505,991,833
9510,995,824
9515,977,828
9520,968,828
9525,960,826
9530,952,828
9535,944,820
9540,945,824
9545,928,828
9550,914,826
9555,909,826
9560,902,827
9565,898,818
9570,878,822
9575,879,817
9580,855,820
9585,856,821
9590,854,822
9595,838,826
9600,833,824
9605,826,820
9610,818,818
9615,801,818
9620,792,813
9625,784,816
9630,784,816
9635,758,813
9640,775,816
9645,760,811
9650,766,813
9655,763,806
9660,758,816
9665,753,812
9670,754,818
9675,744,817
9680,750,811
9685,748,817
9690,737,813
9695,756,811
9700,756,808
9705,764,810
9710,760,808
9715,759,813
9720,765,808
9725,777,806
9730,776,805
9735,782,808
9740,791,809
9745,809,804
9750,821,796
9755,827,799
9760,845,799
9765,839,803
9770,856,803
9775,865,795
9780,889,797
9785,886,790
9790,906,793
9795,910,792
9800,926,796
9805,941,790
9810,957,788
9815,969,787
9820,980,791
9825,996,781
9830,1008,777
9835,1020,786
9840,1030,778
9845,1049,777
9850,1055,775
9855,1066,779
9860,1075,779
9865,1087,770
9870,1094,765
9875,1112,777
9880,1122,765
9885,1118,768
9890,1132,770
9895,1141,765
9900,1143,762
9905,1158,770
9910,1146,766
9915,1159,765
9920,1172,763
9925,1177,762
9930,1181,758
9935,1175,757
9940,1191,761
9945,1180,763
9950,1180,766
9955,1186,759
9960,1180,762
9965,1196,761
9970,1186,766
9975,1191,762
9980,1190,764
9985,1184,762
9990,1175,759
9995,1185,765
10000,1176,767
10005,1176,767
10010,1172,767
10015,1172,767
10020,1158,775
10025,1167,769
10030,1157,775
10035,1155,780
10040,1144,777
10045,1155,780
10050,1148,780
10055,1140,783
10060,1131,785
10065,1128,791
10070,1132,789
10075,1125,796
10080,1125,792
10085,1117,798
10090,1117,802
10095,1110,801
10100,1116,794
10105,1101,803
10110,1116,801
10115,1104,811
10120,1114,805
10125,1100,812
10130,1102,809
10135,1093,815
10140,1096,820
10145,1090,812
10150,1082,818
10155,1088,822
10160,1091,817
10165,1072,824
10170,1077,821
10175,1085,819
10180,1075,826
10185,1074,824
10190,1068,824
10195,1069,826
10200,1065,830
10205,1067,825
10210,1051,830
10215,1053,830
10220,1045,827
10225,1048,828
10230,1030,826
10235,1033,831
10240,1024,830
10245,1029,828
10250,1003,826
10255,1005,832
10260,1007,825
10265,989,829
10270,989,832
10275,970,826
10280,964,823
10285,960,824
10290,946,825
10295,945,821
10300,932,824
10305,927,823
10310,911,826
10315,903,821
10320,890,820
10325,886,824
10330,882,821
10335,865,824
10340,853,818
10345,850,819
10350,843,816
10355,828,818
10360,820,815
10365,812,818
10370,800,815
10375,794,816
10380,796,816
10385,785,824
10390,775,812
10395,770,813
10400,773,814
10405,770,813
10410,764,815
10415,750,808
10420,751,819
10425,750,808
10430,745,815
10435,748,813
10440,747,814
10445,751,812
10450,745,808
10455,749,807
10460,746,808
10465,757,812
10470,764,813
10475,767,809
10480,778,807
10485,777,806
10490,781,810
10495,796,806
10500,808,804
10505,816,803
10510,816,799
10515,833,799
10520,843,804
10525,857,801
10530,864,800
10535,875,798
10540,886,792
10545,897,793
10550,913,793
10555,917,790
10560,941,779
10565,948,787
10570,958,792
10575,971,790
10580,988,783
10585,998,781
10590,1007,778
10595,1025,786
10600,1041,771
10605,1044,776
10610,1059,778
10615,1053,780
10620,1084,774
10625,1092,770
10630,1107,769
10635,1108,769
10640,1119,769
10645,1130,768
10650,1136,765
10655,1151,769
10660,1154,766
10665,1159,769
10670,1166,759
10675,1173,756
10680,1170,764
10685,1173,762
10690,1182,762
10695,1182,761
10700,1189,753
10705,1190,762
10710,1177,763
10715,1176,760
10720,1182,763
10725,1195,759
10730,1186,759
10735,1186,756
10740,1186,764
10745,1185,764
10750,1186,757
10755,1171,769
10760,1180,769
10765,1170,769
10770,1168,765
10775,1174,766
10780,1162,769
10785,1159,776
10790,1159,776
10795,1160,771
10800,1152,777
10805,1148,779
10810,1145,786
10815,1143,786
10820,1140,787
10825,1129,791
10830,1136,791
10835,1127,793
10840,1123,794
10845,1121,799
10850,1106,800
10855,1106,804
10860,1106,805
10865,1103,801
10870,1113,808
10875,1105,808
10880,1093,811
10885,1101,811
10890,1095,814
10895,1088,814
10900,1100,817
10905,1091,816
10910,1087,821
10915,1086,819
10920,1086,819
10925,1078,824
10930,1085,824
10935,1074,823
10940,1076,820
10945,1066,829
10950,1070,829
10955,1060,830
10960,1060,829
10965,1063,834
10970,1043,829
10975,1048,830
10980,1048,829
10985,1039,824
10990,1034,829
10995,1027,828
11000,1020,831
11005,1017,829
11010,1012,825
11015,1008,822
11020,996,830
11025,993,825
11030,980,826
11035,974,828
11040,971,827
11045,957,829
11050,945,824
11055,935,827
11060,925,822
11065,927,823
11070,903,826
11075,896,827
11080,885,819
11085,876,818
11090,870,821
11095,863,816
11100,859,821
11105,856,820
11110,826,816
11115,821,814
11120,817,820
11125,812,819
11130,802,816
11135,790,822
11140,789,816
11145,785,815
11150,771,818
11155,777,813
11160,776,812
11165,751,813
11170,753,819
11175,747,812
11180,753,814
11185,750,806
11190,739,815
11195,744,810
11200,749,812
11205,753,810
11210,743,810
11215,756,813
11220,762,812
11225,762,806
11230,759,815
11235,771,801
11240,780,809
11245,789,813
11250,786,805
11255,796,808
11260,805,804
11265,820,806
11270,824,802
11275,833,804
11280,853,796
11285,854,800
11290,874,799
11295,881,804
11300,888,798
11305,907,799
11310,924,794
11315,935,793
11320,957,793
11325,956,786
11330,974,789
11335,986,789
11340,998,785
11345,1001,781
11350,1033,782
11355,1034,780
11360,1048,777
11365,1057,772
11370,1064,774
11375,1084,777
11380,1088,776
11385,1094,769
11390,1112,771
11395,1112,771
11400,1128,769
11405,1132,762
11410,1139,762
11415,1154,769
11420,1154,761
11425,1170,763
11430,1155,767
11435,1169,764
11440,1170,760
11445,1167,754
11450,1180,760
11455,1184,755
11460,1194,759
11465,1185,763
11470,1185,758
11475,1186,762
11480,1192,757
11485,1186,760
11490,1185,759
11495,1191,774
11500,1182,760
11505,1179,762
11510,1176,770
11515,1184,769
11520,1181,769
11525,1183,771
11530,1171,766
11535,1163,781
11540,1171,774
11545,1161,775
11550,1157,784
11555,1146,774
11560,1145,782
11565,1144,779
11570,1144,783
11575,1140,790
11580,1128,791
11585,1131,791
11590,1130,790
11595,1132,790
11600,1118,798
11605,1116,800
11610,1098,801
11615,1111,801
11620,1107,805
11625,1115,806
11630,1106,810
11635,1106,807
11640,1099,811
11645,1098,811
11650,1089,811
11655,1098,818
11660,1090,812
11665,1087,817
11670,1081,822
11675,1085,818
11680,1082,825
11685,1088,824
11690,1072,824
11695,1068,825
11700,1073,826
11705,1061,826
11710,1067,822
11715,1068,830
11720,1051,830
11725,1053,825
11730,1044,830
11735,1039,828
11740,1042,831
11745,1040,828
11750,1030,827
11755,1029,830
11760,1026,827
11765,1009,826
11770,1009,831
11775,1006,827
11780,988,832
11785,981,826
11790,980,821
11795,973,825
11800,958,822
11805,958,827
11810,951,826
11815,935,826
11820,921,822
11825,912,821
11830,899,821
11835,897,825
11840,895,821
11845,874,823
11850,863,819
11855,860,817
11860,846,821
11865,833,824
11870,831,820
11875,826,817
11880,802,822
11885,806,819
11890,798,813
11895,794,816
11900,791,816
11905,783,814
11910,777,817
11915,775,808
11920,763,822
11925,762,816
11930,761,814
11935,755,813
11940,758,812
11945,755,814
11950,754,809
11955,751,812
11960,744,810
11965,749,809
11970,749,812
11975,756,800
11980,755,809
11985,763,809
11990,761,809
11995,770,803
12000,791,811
12005,793,804
12010,795,805
12015,804,804
12020,813,806
12025,823,806
12030,836,802
12035,841,800
12040,842,803
12045,868,795
12050,874,802
12055,886,794
12060,898,793
12065,911,789
12070,917,792
12075,952,792
12080,955,786
12085,966,790
12090,980,785
12095,990,785
12100,993,781
12105,1010,787
12110,1020,781
12115,1028,775
12120,1048,782
12125,1058,776
12130,1078,772
12135,1086,779
12140,1088,773
12145,1110,771
12150,1110,770
12155,1124,767
12160,1127,767
12165,1147,766
12170,1147,761
12175,1147,763
12180,1159,763
12185,1161,762
12190,1166,766
12195,1174,763
12200,1180,766
12205,1178,765
12210,1180,767
12215,1180,761
12220,1187,760
12225,1183,760
12230,1184,757
12235,1193,759
12240,1188,759
12245,1190,759
12250,1187,756
12255,1195,762
12260,1184,761
12265,1176,761
12270,1172,765
12275,1178,772
12280,1173,764
12285,1169,771
12290,1169,771
12295,1157,778
12300,1157,773
12305,1155,778
12310,1153,778
12315,1162,776
12320,1152,782
12325,1145,783
12330,1147,778
12335,1136,792
12340,1131,788
12345,1128,787
12350,1126,795
12355,1134,793
12360,1119,794
12365,1113,802
12370,1111,798
12375,1103,798
12380,1111,805
12385,1105,803
12390,1108,810
12395,1112,805
12400,1100,816
12405,1092,812
12410,1098,813
12415,1090,818
12420,1092,823
12425,1084,822
12430,1089,824
12435,1083,823
12440,1076,822
12445,1065,823
12450,1081,828
12455,1069,826
12460,1077,828
12465,1071,830
12470,1062,825
12475,1058,824
12480,1057,826
12485,1054,826
12490,1050,827
12495,1046,832
12500,1041,831
12505,1026,833
12510,1027,831
12515,1017,827
12520,1018,828
12525,1009,830
12530,1001,829
12535,998,830
12540,982,830
12545,977,827
12550,977,824
12555,970,823
12560,955,817
12565,950,825
12570,947,831
12575,925,823
12580,913,825
12585,904,822
12590,894,823
12595,893,825
12600,878,821
12605,874,819
12610,856,818
12615,857,823
12620,843,814
12625,831,819
12630,830,817
12635,817,821
12640,808,817
12645,793,817
12650,787,819
12655,787,816
12660,778,818
12665,767,814
12670,769,815
12675,764,815
12680,758,814
12685,753,817
12690,754,816
12695,751,815
12700,750,812
12705,751,812
12710,752,818
12715,759,816
12720,747,810
12725,762,809
12730,742,815
12735,759,814
12740,766,810
12745,767,808
12750,773,808
12755,787,806
12760,786,805
12765,794,807
12770,801,807
12775,802,805
12780,816,804
12785,822,802
12790,833,808
12795,843,801
12800,859,801
12805,870,800
12810,875,797
12815,895,795
12820,907,791
12825,916,797
12830,933,797
12835,948,783
12840,957,789
12845,972,788
12850,977,786
12855,992,787
12860,1005,784
12865,1020,780
12870,1031,777
12875,1032,784
12880,1048,774
12885,1068,775
12890,1077,773
12895,1093,776
12900,1101,781
12905,1106,766
12910,1116,768
12915,1133,768
12920,1135,766
12925,1139,769
12930,1143,765
12935,1155,764
12940,1156,761
12945,1168,763
12950,1169,763
12955,1178,758
12960,1178,761
12965,1185,757
12970,1184,759
12975,1187,760
12980,1190,760
12985,1178,762
12990,1185,760
12995,1184,762
13000,1194,762
13005,1183,763
13010,1182,764
13015,1182,760
13020,1186,770
13025,1180,770
13030,1172,764
13035,1181,764
13040,1169,769
13045,1167,770
13050,1161,768
13055,1163,768
13060,1164,772
13065,1158,778
13070,1160,779
13075,1153,782
13080,1144,782
13085,1126,789
13090,1136,789
13095,1145,788
13100,1135,788
13105,1133,792
13110,1126,790
13115,1129,792
13120,1110,800
13125,1119,795
13130,1102,798
13135,1104,802
13140,1112,802
13145,1106,809
13150,1103,811
13155,1087,811
13160,1100,813
13165,1104,813
13170,1089,816
13175,1089,819
13180,1094,815
13185,1088,825
13190,1079,825
13195,1083,822
13200,1081,825
13205,1072,832
13210,1075,822
13215,1072,830
13220,1073,828
13225,1057,824
13230,1062,826
13235,1055,824
13240,1045,823
13245,1046,833
13250,1043,829
13255,1039,832
13260,1036,827
13265,1029,831
13270,1026,824
13275,1019,827
13280,1013,835
13285,1010,831
13290,998,834
13295,993,829
13300,976,827
13305,976,827
13310,965,827
13315,966,823
13320,949,828
13325,945,825
13330,934,822
13335,919,828
13340,911,824
13345,896,819
13350,898,820
13355,894,824
13360,878,825
13365,858,818
13370,861,822
13375,844,817
13380,846,815
13385,834,822
13390,824,820
13395,816,822
13400,803,816
13405,802,817
13410,787,819
13415,776,815
13420,775,820
13425,772,818
13430,766,813
13435,764,815
13440,756,811
13445,753,813
13450,755,816
13455,763,818
13460,749,811
13465,749,810
13470,751,815
13475,755,816
13480,754,810
13485,746,817
13490,760,808
13495,762,806
13500,754,807
13505,767,809
13510,770,805
13515,782,807
13520,786,807
13525,802,802
13530,804,808
13535,821,808
13540,816,809
13545,827,805
13550,837,795
13555,850,803
13560,870,803
13565,876,794
13570,889,792
13575,905,795
13580,916,792
13585,921,790
13590,932,791
13595,946,790
13600,974,786
13605,983,791
13610,998,781
13615,1004,790
13620,1013,781
13625,1024,782
13630,1039,778
13635,1055,774
13640,1055,780
13645,1075,774
13650,1085,770
13655,1100,771
13660,1107,763
13665,1109,770
13670,1119,770
13675,1130,770
13680,1136,764
13685,1143,756
13690,1163,758
13695,1162,762
13700,1166,766
13705,1166,756
13710,1166,759
13715,1180,762
13720,1173,758
13725,1188,760
13730,1186,762
13735,1184,756
13740,1183,762
13745,1195,763
13750,1181,764
13755,1189,760
13760,1181,765
13765,1178,767
13770,1187,762
13775,1186,767
13780,1174,769
13785,1175,760
13790,1179,765
13795,1178,766
13800,1168,767
13805,1178,770
13810,1164,771
13815,1163,776
13820,1152,774
13825,1147,781
13830,1152,778
13835,1144,782
13840,1135,780
13845,1134,780
13850,1129,789
13855,1135,792
13860,1131,791
13865,1125,796
13870,1123,793
13875,1119,794
13880,1110,796
13885,1120,804
13890,1106,804
13895,1113,804
13900,1105,804
13905,1088,809
13910,1093,808
13915,1097,813
13920,1097,811
13925,1093,815
13930,1090,812
13935,1096,818
13940,1086,819
13945,1095,821
13950,1085,818
13955,1085,817
13960,1081,824
13965,1076,829
13970,1070,825
13975,1063,825
13980,1070,826
13985,1068,822
13990,1069,822
13995,1062,831
14000,1059,825
14005,1037,827
14010,1040,828
14015,1038,830
14020,1038,830
14025,1022,832
14030,1020,829
14035,1011,827
14040,1004,833
14045,1000,829
14050,998,826
14055,987,828
14060,975,826
14065,978,825
14070,964,830
14075,945,824
14080,950,826
14085,939,823
14090,926,822
14095,920,821
14100,910,826
14105,894,828
14110,881,819
14115,881,818
14120,861,815
14125,864,814
14130,858,820
14135,846,818
14140,826,820
14145,829,816
14150,814,820
14155,811,819
14160,799,821
14165,790,821
14170,785,815
14175,779,816
14180,782,815
14185,772,817
14190,761,817
14195,768,813
14200,760,818
14205,750,819
14210,751,812
14215,749,814
14220,742,808
14225,742,815
14230,748,814
14235,755,811
14240,752,810
14245,755,810
14250,749,815
14255,757,810
14260,753,811
14265,774,806
14270,776,810
14275,788,809
14280,784,799
14285,794,803
14290,808,806
14295,821,801
14300,824,804
14305,843,800
14310,849,805
14315,860,807
14320,871,803
14325,873,807
14330,900,793
14335,905,793
14340,926,793
14345,935,791
14350,950,790
14355,953,788
14360,972,788
14365,994,789
14370,1011,784
14375,1010,784
14380,1026,781
14385,1032,785
14390,1044,782
14395,1057,777
14400,1066,773
14405,1072,767
14410,1086,774
14415,1098,767
14420,1111,769
14425,1110,772
14430,1132,766
14435,1136,764
14440,1141,763
14445,1145,768
14450,1152,763
14455,1170,764
14460,1163,764
14465,1165,763
14470,1173,759
14475,1182,754
14480,1190,757
14485,1177,764
14490,1184,762
14495,1186,761
14500,1188,757
14505,1183,762
14510,1190,757
14515,1185,761
14520,1192,761
14525,1196,764
14530,1185,762
14535,1188,763
14540,1189,764
14545,1185,767
14550,1179,770
14555,1172,775
14560,1169,773
14565,1158,774
14570,1168,769
14575,1162,772
14580,1160,776
14585,1161,778
14590,1159,790
14595,1136,784
14600,1138,785
14605,1139,787
14610,1144,790
14615,1121,792
14620,1123,796
14625,1123,794
14630,1122,796
14635,1119,802
14640,1112,798
14645,1112,803
14650,1103,801
14655,1110,804
14660,1107,806
14665,1095,812
14670,1100,808
14675,1094,808
14680,1090,820
14685,1089,815
14690,1092,816
14695,1090,819
14700,1088,823
14705,1078,823
14710,1086,820
14715,1071,821
14720,1073,818
14725,1086,827
14730,1075,825
14735,1070,830
14740,1064,827
14745,1066,830
14750,1064,827
14755,1059,823
14760,1050,830
14765,1046,828
14770,1046,826
14775,1036,827
14780,1033,834
14785,1018,826
14790,1009,830
14795,1014,831
14800,1005,827
14805,992,827
14810,989,828
14815,983,826
14820,969,831
14825,975,826
14830,963,825
14835,955,826
14840,941,825
14845,932,827
14850,914,822
14855,911,824
14860,899,822
14865,900,819
14870,884,816
14875,872,826
14880,867,813
14885,857,822
14890,853,819
14895,833,820
14900,833,818
14905,820,818
14910,817,818
14915,806,817
14920,793,816
14925,793,814
14930,795,814
14935,781,817
14940,773,823
14945,757,820
14950,766,818
14955,759,809
14960,754,813
14965,754,816
14970,758,808
14975,750,812
14980,746,811
14985,743,810
14990,749,812
14995,748,811
15000,756,806
15005,752,809
15010,757,808
15015,756,806
15020,775,812
15025,766,803
15030,784,801
15035,790,803
15040,792,808
15045,811,805
15050,813,810
15055,826,799
15060,831,798
15065,847,800
15070,851,801
15075,862,794
15080,885,798
15085,890,797
15090,909,790
15095,906,796
15100,933,794
15105,943,787
15110,954,791
15115,970,789
15120,982,789
15125,995,785
15130,1005,779
15135,1016,779
15140,1028,788
15145,1032,782
15150,1053,779
15155,1066,778
15160,1075,772
15165,1078,771
15170,1089,773
15175,1100,770
15180,1117,770
15185,1114,766
15190,1130,766
15195,1134,770
15200,1150,772
15205,1151,771
15210,1156,762
15215,1162,762
15220,1169,760
15225,1171,765
15230,1176,756
15235,1177,759
15240,1185,763
15245,1179,760
15250,1194,762
15255,1181,761
15260,1190,761
15265,1181,758
15270,1184,764
15275,1189,758
15280,1191,763
15285,1178,761
15290,1187,764
15295,1179,765
15300,1177,770
15305,1176,768
15310,1166,763
15315,1172,769
15320,1162,770
15325,1165,776
15330,1161,779
15335,1150,774
15340,1144,777
15345,1147,786
15350,1141,779
15355,1142,785
15360,1145,784
15365,1137,789
15370,1139,788
15375,1127,792
15380,1138,799
15385,1123,794
15390,1124,796
15395,1116,797
15400,1123,804
15405,1121,797
15410,1110,806
15415,1112,809
15420,1105,811
15425,1106,816
15430,1091,810
15435,1097,814
15440,1099,813
15445,1096,819
15450,1094,819
15455,1088,823
15460,1090,819
15465,1079,825
15470,1075,824
15475,1073,826
15480,1069,828
15485,1067,827
15490,1074,829
15495,1060,828
15500,1059,827
15505,1059,826
15510,1067,831
15515,1047,835
15520,1040,832
15525,1041,830
15530,1035,832
15535,1030,833
15540,1033,832
15545,1028,829
15550,1011,831
15555,1004,828
15560,1003,830
15565,994,825
15570,988,827
15575,978,828
15580,968,820
15585,960,828
15590,949,821
15595,944,828
15600,942,826
15605,931,824
15610,923,829
15615,906,822
15620,905,824
15625,890,820
15630,878,825
15635,872,818
15640,858,821
15645,848,818
15650,846,819
15655,841,814
15660,821,814
15665,818,814
15670,802,824
15675,808,818
15680,794,818
15685,782,816
15690,783,815
15695,787,811
15700,772,816
15705,766,811
15710,760,818
15715,755,813
15720,761,813
15725,750,814
15730,748,811
15735,750,810
15740,742,809
15745,751,817
15750,744,813
15755,757,816
15760,750,810
15765,768,813
15770,761,809
15775,768,814
15780,767,810
15785,780,811
15790,786,807
15795,796,808
15800,798,808
15805,818,805
15810,821,803
15815,838,801
15820,837,797
15825,854,803
15830,862,800
15835,874,798
15840,890,800
15845,905,802
15850,906,798
15855,921,800
15860,935,791
15865,947,793
15870,962,787
15875,972,787
15880,981,792
15885,1001,783
15890,1011,776
15895,1025,783
15900,1034,781
15905,1053,783
15910,1054,777
15915,1068,773
15920,1081,773
15925,1089,776
15930,1101,769
15935,1108,773
15940,1120,763
15945,1125,765
15950,1125,765
15955,1128,768
15960,1148,766
15965,1152,765
15970,1156,765
15975,1164,758
15980,1166,761
15985,1168,756
15990,1168,762
15995,1175,759
16000,1183,759
16004,1181,762
16010,1191,760
16015,1188,758
16020,1192,760
16024,1181,764
16030,1196,763
16035,1180,759
16040,1188,760
16045,1183,767
16050,1180,767
16055,1171,761
16059,1178,768
16065,1166,768
16070,1172,766
16075,1166,771
16079,1165,776
16085,1167,772
16090,1159,779
16094,1156,774
16100,1148,783
16105,1153,777
16110,1143,782
16114,1137,783
16120,1144,786
16125,1125,789
16129,1129,788
16135,1123,794
16140,1121,795
16145,1123,801
16149,1112,797
16155,1128,801
16160,1105,807
16165,1111,807
16170,1113,810
16175,1118,805
16180,1096,809
16184,1096,810
16190,1110,812
16195,1101,814
16200,1095,817
16204,1091,822
16210,1092,826
16215,1091,823
16219,1080,822
16225,1073,821
16230,1084,820
16235,1082,826
16239,1066,824
16245,1063,832
16250,1076,834
16254,1061,828
16260,1065,828
16265,1050,827
16270,1049,826
16274,1052,828
16280,1051,829
16285,1039,824
16290,1031,823
16295,1020,834
16300,1033,829
16305,1012,831
16309,1009,832
16315,996,827
16320,999,828
16325,986,832
16329,988,828
16335,974,827
16340,962,827
16344,951,822
16350,947,831
16355,947,827
16360,928,824
16364,923,826
16370,915,828
16375,908,821
16379,897,821
16385,889,822
16390,874,820
16395,873,821
16400,851,822
16405,844,819
16410,839,821
16415,827,812
16420,822,818
16425,813,819
16430,800,819
16435,807,822
16440,791,819
16445,775,814
16450,783,817
16455,770,819
16460,769,813
16465,760,810
16470,759,816
16475,757,815
16480,755,819
16485,741,810
16490,749,813
16495,742,813
16500,750,810
16505,744,811
16510,741,810
16515,751,813
16520,751,813
16525,766,815
16530,761,807
16535,764,812
16540,775,810
16545,788,801
16550,793,805
16555,795,806
16560,817,805
16565,811,807
16570,823,812
16575,836,801
16580,844,806
16585,853,802
16590,867,801
16595,884,797
16600,898,794
16605,905,796
16610,915,796
16615,925,791
16620,941,789
16625,958,787
16630,967,789
16635,979,791
16640,983,789
16645,1007,782
16650,1026,783
16655,1030,781
16660,1042,777
16665,1052,780
16670,1067,774
16675,1076,775
16680,1081,773
16685,1105,774
16690,1099,770
16695,1120,769
16700,1129,768
16705,1128,771
16710,1138,762
16715,1140,762
16720,1156,764
16725,1158,763
16730,1166,761
16735,1169,759
16740,1163,757
16745,1171,755
16750,1182,761
16755,1171,763
16760,1189,754
16765,1178,765
16770,1185,767
16775,1184,766
16780,1184,756
16785,1194,760
16790,1183,758
16795,1188,762
16800,1181,760
16805,1187,767
16810,1182,764
16815,1176,769
16820,1177,762
16825,1178,769
16830,1165,769
16835,1177,772
16840,1165,768
16845,1163,771
16850,1152,778
16855,1151,784
16860,1147,775
16865,1146,782
16870,1143,780
16875,1143,785
16880,1140,793
16885,1137,793
16890,1124,788
16895,1125,798
16900,1114,794
16905,1119,799
16910,1104,802
16915,1123,803
16920,1104,800
16925,1112,811
16930,1113,805
16935,1106,810
16940,1099,817
16945,1096,812
16950,1092,813
16955,1091,816
16960,1088,817
16965,1095,821
16970,1081,816
16975,1084,825
16980,1084,820
16985,1079,823
16990,1082,821
16995,1078,831
17000,1070,822
17005,1070,825
17010,1067,830
17015,1061,826
17020,1058,824
17025,1053,826
17030,1047,829
17035,1048,830
17040,1043,829
17045,1034,826
17050,1031,827
17055,1020,828
17060,1020,832
17065,1018,830
17070,1013,827
17075,999,829
17080,994,829
17085,988,834
17090,971,831
17095,961,829
17100,959,824
17105,957,825
17110,943,825
17115,940,824
17120,929,828
17125,926,822
17130,912,824
17135,904,822
17140,885,821
17145,890,821
17150,872,820
17155,866,818
17160,848,825
17165,837,817
17170,834,817
17175,827,814
17180,814,825
17185,811,815
17190,802,816
17195,799,815
17200,790,821
17205,781,815
17210,772,822
17215,765,819
17220,770,814
17225,757,815
17230,751,810
17235,752,812
17240,747,816
17245,744,814
17250,737,808
17255,747,809
17260,752,810
17265,751,816
17270,752,808
17275,743,806
17280,761,811
17285,757,810
17290,760,807
17295,771,808
17300,772,804
17305,786,808
17310,787,799
17315,798,808
17320,805,805
17325,817,804
17330,826,805
17335,840,796
17340,846,798
17345,862,798
17350,875,799
17355,885,799
17360,897,793
17365,904,786
17370,915,790
17375,942,795
17380,949,790
17385,957,790
17390,975,781
17395,992,784
17400,997,779
17405,1017,782
17410,1029,777
17415,1032,777
17420,1051,778
17425,1057,778
17430,1086,774
17435,1085,771
17440,1091,773
17445,1106,774
17450,1115,772
17455,1122,768
17460,1118,767
17465,1136,763
17470,1141,767
17475,1148,767
17480,1151,762
17485,1171,759
17490,1164,762
17495,1168,764
17500,1171,765
17505,1182,761
17510,1180,760
17515,1190,757
17520,1184,758
17525,1189,756
17530,1183,757
17535,1202,763
17540,1188,764
17545,1187,759
17550,1181,765
17555,1184,772
17560,1188,759
17565,1174,766
17570,1179,764
17575,1179,763
17580,1178,769
17585,1170,765
17590,1172,768
17595,1168,773
17600,1164,774
17605,1160,769
17610,1158,777
17615,1144,780
17620,1150,777
17625,1145,780
17630,1133,783
17635,1139,782
17640,1134,790
17645,1143,794
17650,1132,790
17655,1128,795
17660,1117,797
17665,1117,799
17670,1123,804
17675,1110,806
17680,1105,808
17685,1114,806
17690,1103,809
17695,1109,811
17700,1099,813
17705,1094,810
17710,1105,817
17715,1098,814
17720,1097,812
17725,1097,821
17730,1084,819
17735,1088,824
17740,1077,818
17745,1078,825
17750,1081,820
17755,1083,827
17760,1075,828
17765,1054,827
17770,1065,828
17775,1055,831
17780,1053,822
17785,1054,823
17790,1053,830
17795,1036,831
17800,1044,827
17805,1034,831
17810,1026,829
17815,1031,829
17820,1009,833
17825,1006,830
17830,994,830
17835,999,831
17840,998,827
17845,981,825
17850,972,827
17855,968,826
17860,955,826
17865,946,828
17870,946,828
17875,924,826
17880,920,826
17885,916,820
17890,902,817
17895,898,814
17900,881,823
17905,882,819
17910,859,822
17915,854,818
17920,848,820
17925,832,818
17930,824,815
17935,814,816
17940,805,822
17945,808,822
17950,795,819
17955,789,817
17960,782,815
17965,768,810
17970,770,819
17975,767,817
17980,762,814
17985,759,819
17990,745,816
17995,752,815
18000,747,810
18005,745,816
18010,753,811
18015,752,807
18020,740,812
18025,752,813
18030,750,809
18035,766,806
18040,756,812
18045,758,809
18050,761,807
18055,773,807
18060,786,807
18065,790,803
18070,799,808
18075,809,806
18080,820,806
18085,829,797
18090,834,796
18095,840,799
18100,848,802
18105,861,802
18110,886,793
18115,886,796
18120,902,800
18125,919,791
18130,925,792
18135,935,792
18140,952,790
18145,963,789
18150,977,784
18155,987,783
18160,1012,782
18165,1016,783
18170,1024,781
18175,1044,777
18180,1045,782
18185,1080,777
18190,1069,777
18195,1080,772
18200,1086,769
18205,1109,770
18210,1126,767
18215,1133,766
18220,1128,767
18225,1131,767
18230,1147,763
18235,1158,768
18240,1161,767
18245,1165,765
18250,1166,757
18255,1168,760
18260,1170,763
18265,1178,764
18270,1181,759
18275,1187,756
18280,1188,757
18285,1185,760
18290,1192,761
18295,1183,763
18300,1185,762
18305,1184,767
18310,1179,763
18315,1184,765
18320,1185,762
18325,1176,764
18330,1174,760
18335,1177,760
18340,1173,770
18345,1172,775
18350,1159,768
18355,1159,776
18360,1164,779
18365,1150,779
18370,1156,780
18375,1157,779
18380,1150,781
18385,1143,788
18390,1137,786
18395,1139,785
18400,1142,790
18405,1133,785
18410,1130,798
18415,1114,792
18420,1133,803
18425,1119,800
18430,1110,805
18435,1119,801
18440,1111,804
18445,1106,808
18450,1100,810
18455,1099,813
18460,1100,818
18465,1093,815
18470,1091,820
18475,1093,813
18480,1087,816
18485,1084,819
18490,1092,826
18495,1081,822
18500,1078,824
18505,1077,823
18510,1078,829
18515,1070,826
18520,1072,821
18525,1059,828
18530,1060,827
18535,1057,829
18540,1048,831
18545,1044,825
18550,1052,831
18555,1039,834
18560,1036,832
18565,1038,828
18570,1028,832
18575,1022,831
18580,1018,827
18585,1006,827
18590,1002,827
18595,995,827
18600,984,832
18605,981,828
18610,965,832
18615,964,832
18620,965,828
18625,940,824
18630,934,828
18635,924,823
18640,920,819
18645,904,819
18650,904,823
18655,889,826
18660,880,818
18665,873,824
18670,852,815
18675,848,822
18680,837,818
18685,840,814
18690,819,814
18695,817,817
18700,804,822
18705,802,815
18710,794,820
18715,773,817
18720,788,813
18725,767,817
18730,760,811
18735,762,815
18740,761,817
18745,757,815
18750,745,809
18755,756,812
18760,751,816
18765,743,816
18770,742,808
18775,738,810
18780,749,814
18785,751,812
18790,760,806
18795,757,809
18800,763,814
18805,770,807
18810,768,806
18815,781,807
18820,788,803
18825,788,814
18830,803,803
18835,809,804
18840,827,802
18845,832,804
18850,842,799
18855,854,801
18860,867,802
18865,882,801
18870,897,794
18875,896,799
18880,909,790
18885,909,791
18890,936,790
18895,953,783
18900,960,794
18905,970,787
18910,991,782
18915,1002,784
18920,996,781
18925,1030,781
18930,1038,783
18935,1047,780
18940,1060,777
18945,1070,775
18950,1070,773
18955,1092,770
18960,1106,768
18965,1111,767
18970,1122,767
18975,1126,769
18980,1141,768
18985,1152,765
18990,1153,767
18995,1154,760
19000,1163,764
19005,1170,765
19010,1165,764
19015,1178,761
19020,1174,761
19025,1187,763
19030,1183,760
19035,1190,761
19040,1183,762
19045,1183,756
19050,1186,762
19055,1190,759
19060,1193,762
19065,1191,765
19070,1196,760
19075,1180,768
19080,1183,764
19085,1184,766
19090,1178,763
19095,1174,768
19100,1168,769
19105,1175,767
19110,1173,768
19115,1151,773
19120,1158,772
19125,1145,779
19130,1154,778
19135,1156,785
19140,1153,782
19145,1148,784
19150,1137,787
19155,1126,788
19160,1123,787
19165,1117,790
19170,1125,794
19175,1115,795
19180,1110,798
19185,1112,801
19190,1113,801
19195,1103,808
19200,1100,808
19205,1111,806
19210,1094,812
19215,1098,813
19220,1097,819
19225,1097,812
19230,1097,814
19235,1105,823
19240,1084,818
19245,1093,820
19250,1079,824
19255,1085,823
19260,1077,818
19265,1080,826
19270,1066,826
19275,1074,826
19280,1066,828
19285,1077,829
19290,1056,829
19295,1050,822
19300,1054,827
19305,1051,832
19310,1041,834
19315,1040,830
19320,1031,828
19325,1026,833
19330,1029,829
19335,1020,823
19340,1015,827
19345,1007,828
19350,998,834
19355,989,830
19360,974,821
19365,979,828
19370,959,826
19375,953,825
19380,948,827
19385,938,827
19390,925,822
19395,913,824
19400,903,821
19405,901,824
19410,900,816
19415,883,824
19420,877,818
19425,866,828
19430,850,820
19435,848,818
19440,830,814
19445,825,822
19450,808,821
19455,808,818
19460,791,816
19465,800,814
19470,791,813
19475,782,808
19480,779,814
19485,773,814
19490,763,806
19495,755,812
19500,752,815
19505,756,813
19510,745,806
19515,744,810
19520,750,811
19525,749,808
19530,754,804
19535,752,812
19540,751,813
19545,743,809
19550,756,806
19555,766,809
19560,761,804
19565,773,809
19570,783,811
19575,777,805
19580,796,811
19585,799,806
19590,809,799
19595,811,807
19600,834,801
19605,838,801
19610,856,802
19615,858,803
19620,863,795
19625,877,791
19630,893,795
19635,911,794
19640,910,796
19645,927,792
19650,942,790
19655,961,792
19660,968,786
19665,977,786
19670,994,782
19675,1008,781
19680,1025,784
19685,1025,785
19690,1043,778
19695,1056,774
19700,1065,774
19705,1073,769
19710,1074,772
19715,1092,771
19720,1109,774
19725,1119,769
19730,1113,764
19735,1135,771
19740,1148,766
19745,1146,760
19750,1152,765
19755,1161,760
19760,1165,764
19765,1173,758
19770,1172,764
19775,1180,764
19780,1190,756
19785,1183,762
19790,1188,761
19795,1187,757
19800,1183,759
19805,1196,760
19810,1184,764
19815,1184,757
19820,1196,769
19825,1195,762
19830,1187,765
19835,1186,770
19840,1175,763
19845,1185,763
19850,1175,767
19855,1173,768
19860,1174,768
19865,1164,773
19870,1154,771
19875,1171,774
19880,1151,778
19885,1163,774
19890,1150,784
19895,1149,780
19900,1151,778
19905,1132,783
19910,1131,790
19915,1131,790
19920,1126,788
19925,1128,796
19930,1120,794
19935,1120,800
19940,1112,795
19945,1114,801
19950,1106,800
19955,1107,805
19960,1108,805
19965,1104,805
19970,1097,812
19975,1097,815
19980,1098,817
19985,1096,817
19990,1088,823
19995,1086,818
20000,1090,821
20005,1084,822
20010,1085,823
20015,1082,819
20020,1074,822
20025,1080,821
20030,1074,828
20035,1066,832
20040,1072,828
20045,1061,826
20050,1052,831
20055,1054,822
20060,1055,827
20065,1046,822
20070,1038,829
20075,1038,827
20080,1033,831
20085,1028,824
20090,1016,827
20095,1014,831
20100,1007,829
20105,1002,829
20110,991,827
20115,985,826
20120,977,829
20125,972,823
20130,970,824
20135,946,826
20140,949,828
20145,931,823
20150,928,824
20155,914,822
20160,902,820
20165,894,820
20170,886,823
20175,882,820
20180,870,822
20185,858,813
20190,844,814
20195,831,818
20200,835,814
20205,824,813
20210,809,812
20215,808,818
20220,802,817
20225,788,818
20230,786,816
20235,777,814
20240,761,814
20245,766,815
20250,750,813
20255,760,816
20260,753,818
20265,756,817
20270,753,808
20275,744,808
20280,747,814
20285,750,813
20290,751,812
20295,748,812
20300,750,808
20305,753,812
20310,758,811
20315,764,809
20320,765,807
20325,769,803
20330,780,811
20335,785,807
20340,801,804
20345,800,804
20350,816,811
20355,823,804
20360,828,799
20365,847,799
20370,855,801
20375,871,799
20380,872,799
20385,889,793
20390,901,798
20395,911,797
20400,925,792
20405,933,787
20410,952,790
20415,951,784
20420,975,781
20425,991,782
20430,1002,784
20435,1017,786
20440,1029,772
20445,1045,783
20450,1051,779
20455,1066,777
20460,1075,779
20465,1087,777
20470,1093,773
20475,1098,773
20480,1111,771
20485,1116,766
20490,1134,770
20495,1134,768
20500,1137,763
20505,1150,769
20510,1152,765
20515,1163,764
20520,1174,757
20525,1173,758
20530,1171,760
20535,1183,759
20540,1180,752
20545,1182,757
20550,1183,762
20555,1191,763
20560,1186,757
20565,1185,763
20570,1190,758
20575,1185,758
20580,1179,764
20585,1180,761
20590,1184,763
20595,1183,769
20600,1180,770
20605,1174,771
20610,1176,768
20615,1168,769
20620,1174,770
20625,1169,775
20630,1166,777
20635,1152,778
20640,1155,777
20645,1155,774
20650,1153,779
20655,1141,784
20660,1133,777
20665,1138,784
20670,1136,791
20675,1132,786
20680,1123,789
20685,1129,794
20690,1112,805
20695,1121,801
20700,1107,804
20705,1116,803
20710,1111,808
20715,1104,803
20720,1105,811
20725,1107,812
20730,1100,815
20735,1102,813
20740,1088,816
20745,1093,813
20750,1094,816
20755,1088,819
20760,1080,823
20765,1076,817
20770,1082,825
20775,1081,825
20780,1077,824
20785,1077,822
20790,1064,829
20795,1081,826
20800,1060,831
20805,1061,827
20810,1055,832
20815,1044,825
20820,1035,829
20825,1033,831
20830,1038,829
20835,1043,829
20840,1027,832
20845,1023,826
20850,1012,831
20855,1009,829
20860,1002,826
20865,996,826
20870,997,823
20875,986,826
20880,977,827
20885,966,821
20890,943,828
20895,947,822
20900,938,823
20905,935,826
20910,920,824
20915,908,821
20920,899,825
20925,878,829
20930,878,816
20935,873,821
20940,859,822
20945,854,822
20950,837,815
20955,838,817
20960,826,822
20965,820,824
20970,802,818
20975,800,819
20980,801,814
20985,789,813
20990,778,816
20995,772,818
21000,777,819
21005,777,815
21010,760,814
21015,752,811
21020,751,813
21025,752,815
21030,751,810
21035,742,808
21040,757,810
21045,749,815
21050,741,809
21055,745,810
21060,755,810
21065,754,810
21070,766,806
21075,757,811
21080,772,804
21085,772,811
21090,787,805
21095,792,806
21100,799,803
21105,799,802
21110,809,802
21115,829,803
21120,832,806
21125,853,795
21130,864,799
21135,875,803
21140,887,795
21145,892,793
21150,907,795
21155,919,791
21160,929,788
21165,948,785
21170,953,793
21175,976,785
21180,981,780
21185,993,786
21190,1004,786
21195,1012,784
21200,1031,779
21205,1040,779
21210,1059,779
21215,1063,776
21220,1075,771
21225,1083,774
21230,1098,773
21235,1104,769
21240,1122,765
21245,1121,768
21250,1128,766
21255,1140,767
21260,1145,756
21265,1154,765
21270,1170,761
21275,1160,765
21280,1171,763
21285,1170,758
21290,1182,766
21295,1180,756
21300,1179,763
21305,1190,759
21310,1195,763
21315,1187,754
21320,1193,764
21325,1191,764
21330,1186,761
21335,1181,756
21340,1192,761
21345,1186,759
21350,1182,769
21355,1168,770
21360,1172,763
21365,1173,769
21370,1172,768
21375,1175,774
21380,1161,776
21385,1159,767
21390,1157,772
21395,1154,775
21400,1156,779
21405,1141,777
21410,1145,776
21415,1141,782
21420,1137,785
21425,1134,793
21430,1130,784
21435,1131,791
21440,1129,791
21445,1115,800
21450,1121,797
21455,1115,798
21460,1104,802
21465,1108,806
21470,1112,803
21475,1107,813
21480,1109,806
21485,1108,803
21490,1103,807
21495,1090,814
21500,1098,814
21505,1087,820
21510,1092,818
21515,1082,815
21520,1080,824
21525,1081,819
21530,1082,819
21535,1069,825
21540,1063,824
21545,1076,826
21550,1066,822
21555,1065,823
21560,1069,827
21565,1057,823
21570,1052,822
21575,1058,831
21580,1051,831
21585,1049,827
21590,1036,827
21595,1033,830
21600,1020,827
21605,1015,826
21610,1019,826
21615,1001,828
21620,1001,821
21625,985,829
21630,982,828
21635,974,827
21640,956,828
21645,957,828
21650,949,826
21655,938,823
21660,944,823
21665,921,826
21670,910,824
21675,907,818
21680,893,823
21685,891,820
21690,882,823
21695,867,821
21700,861,810
21705,857,820
21710,835,817
21715,830,820
21720,822,816
21725,815,822
21730,800,816
21735,800,818
21740,789,816
21745,791,813
21750,782,818
21755,766,816
21760,762,820
21765,762,811
21770,757,818
21775,760,816
21780,748,813
21785,753,808
21790,746,814
21795,743,816
21800,751,812
21805,746,813
21810,742,813
21815,749,813
21820,752,802
21825,764,806
21830,763,808
21835,773,808
21840,769,811
21845,784,810
21850,785,808
21855,794,805
21860,802,803
21865,805,808
21870,818,801
21875,838,803
21880,842,803
21885,848,798
21890,855,798
21895,878,799
21900,888,799
21905,899,790
21910,915,795
21915,926,792
21920,939,791
21925,953,793
21930,955,785
21935,985,782
21940,989,787
21945,1006,786
21950,1016,782
21955,1022,780
21960,1037,780
21965,1051,777
21970,1061,779
21975,1075,775
21980,1080,777
21985,1097,772
21990,1113,776
21995,1113,767
22000,1124,775
22005,1130,766
22010,1148,762
22015,1143,764
22020,1151,765
22025,1169,761
22030,1161,763
22035,1170,764
22040,1177,764
22045,1183,762
22050,1181,762
22055,1179,757
22060,1181,763
22065,1182,758
22070,1195,759
22075,1188,760
22080,1197,760
22085,1187,758
22090,1183,764
22095,1183,759
22100,1181,762
22105,1186,764
22110,1180,767
22115,1174,766
22120,1178,768
22125,1176,770
22130,1169,772
22135,1180,768
22140,1167,778
22145,1158,780
22150,1161,777
22155,1160,777
22160,1164,784
22165,1155,783
22170,1144,784
22175,1142,786
22180,1153,785
22185,1124,788
22190,1128,793
22195,1118,791
22200,1123,793
22205,1120,795
22210,1122,800
22215,1114,804
22220,1116,809
22225,1108,798
22230,1103,807
22235,1109,809
22240,1111,812
22245,1090,812
22250,1100,816
22255,1090,817
22260,1092,821
22265,1086,816
22270,1092,817
22275,1088,822
22280,1081,818
22285,1083,828
22290,1078,815
22295,1072,829
22300,1073,826
22305,1071,826
22310,1064,826
22315,1076,828
22320,1055,831
22325,1050,832
22330,1046,831
22335,1054,827
22340,1046,824
22345,1039,829
22350,1034,830
22355,1020,830
22360,1023,827
22365,1016,831
22370,1013,831
22375,1000,826
22380,995,826
22385,1000,831
22390,981,827
22395,973,828
22400,964,825
22405,943,828
22410,946,822
22415,933,821
22420,922,826
22425,910,820
22430,905,827
22435,897,827
22440,894,821
22445,879,821
22450,874,820
22455,855,823
22460,851,826
22465,842,818
22470,832,819
22475,825,820
22480,819,813
22485,814,819
22490,803,817
22495,793,815
22500,784,811
22505,772,819
22510,769,818
22515,768,813
22520,759,812
22525,766,815
22530,753,814
22535,746,814
22540,754,809
22545,749,810
22550,747,810
22555,747,815
22560,749,814
22565,753,812
22570,747,814
22575,754,812
22580,760,814
22585,760,809
22590,772,808
22595,775,805
22600,774,802
22605,778,807
22610,792,802
22615,799,808
22620,806,801
22625,813,803
22630,824,801
22635,822,804
22640,849,798
22645,860,798
22650,874,796
22655,883,797
22660,894,791
22665,906,794
22670,918,792
22675,934,790
22680,944,792
22685,958,787
22690,968,786
22695,989,782
22700,995,783
22705,1008,783
22710,1020,777
22715,1034,778
22720,1048,780
22725,1049,778
22730,1064,779
22735,1075,771
22740,1088,779
22745,1097,769
22750,1113,768
22755,1113,765
22760,1127,767
22765,1127,762
22770,1137,766
22775,1148,763
22780,1156,765
22785,1159,763
22790,1153,765
22795,1165,757
22800,1174,758
22805,1169,761
22810,1184,761
22815,1187,761
22820,1183,761
22825,1194,765
22830,1183,761
22835,1178,759
22840,1181,759
22845,1181,760
22850,1193,765
22855,1190,761
22860,1183,758
22865,1185,758
22870,1179,769
22875,1178,760
22880,1163,769
22885,1174,772
22890,1163,763
22895,1160,773
22900,1160,773
22905,1165,777
22910,1158,782
22915,1156,778
22920,1148,786
22925,1144,787
22930,1149,785
22935,1132,788
22940,1136,785
22945,1139,790
22950,1124,789
22955,1132,800
22960,1122,797
22965,1112,797
22970,1117,793
22975,1119,797
22980,1116,805
22985,1115,803
22990,1109,813
22995,1095,805
23000,1102,811
23005,1102,818
23010,1091,816
23015,1096,818
23020,1094,811
23025,1075,821
23030,1086,820
23035,1089,817
23040,1080,820
23045,1082,819
23050,1085,823
23055,1080,825
23060,1069,824
23065,1064,825
23070,1066,826
23075,1061,827
23080,1059,826
23085,1057,836
23090,1058,831
23095,1049,826
23100,1035,828
23105,1033,836
23110,1033,827
23115,1018,825
23120,1012,832
23125,1017,830
23130,1007,829
23135,996,821
23140,988,826
23145,986,826
23150,969,830
23155,953,825
23160,960,825
23165,961,824
23170,944,828
23175,936,821
23180,930,817
23185,904,818
23190,898,822
23195,891,822
23200,886,819
23205,871,826
23210,863,824
23215,858,817
23220,851,819
23225,844,818
23230,826,822
23235,820,817
23240,819,820
23245,804,814
23250,794,816
23255,791,812
23260,787,819
23265,783,813
23270,769,813
23275,763,813
23280,772,815
23285,747,819
23290,758,808
23295,758,810
23300,749,815
23305,739,815
23310,750,810
23315,750,816
23320,759,817
23325,749,812
23330,763,810
23335,754,808
23340,753,810
23345,779,811
23350,762,808
23355,770,810
23360,777,809
23365,787,807
23370,793,808
23375,800,807
23380,800,805
23385,827,802
23390,829,804
23395,844,804
23400,854,801
23405,863,800
23410,874,797
23415,888,794
23420,900,796
23425,914,789
23430,924,796
23435,939,792
23440,961,785
23445,971,789
23450,980,790
23455,987,784
23460,1002,787
23465,1010,791
23470,1026,779
23475,1033,777
23480,1061,776
23485,1066,779
23490,1075,775
23495,1083,777
23500,1100,769
23505,1105,769
23510,1103,771
23515,1118,771
23520,1131,771
23525,1143,771
23530,1146,768
23535,1142,759
23540,1156,762
23545,1164,758
23550,1172,758
23555,1169,758
23560,1175,762
23565,1177,762
23570,1180,761
23575,1191,758
23580,1181,765
23585,1183,765
23590,1189,768
23595,1190,757
23600,1186,765
23605,1186,764
23610,1194,761
23615,1187,762
23620,1191,765
23625,1189,761
23630,1178,769
23635,1183,764
23640,1161,767
23645,1167,764
23650,1173,770
23655,1162,772
23660,1168,770
23665,1162,778
23670,1141,778
23675,1144,780
23680,1146,786
23685,1142,784
23690,1132,784
23695,1140,784
23700,1123,790
23705,1127,793
23710,1127,789
23715,1125,799
23720,1111,796
23725,1113,795
23730,1106,800
23735,1105,806
23740,1118,800
23745,1110,811
23750,1110,809
23755,1101,814
23760,1093,813
23765,1107,811
23770,1092,816
23775,1084,815
23780,1086,818
23785,1090,820
23790,1095,814
23795,1085,826
23800,1075,819
23805,1074,828
23810,1080,822
23815,1073,826
23820,1073,823
23825,1065,828
23830,1067,827
23835,1062,829
23840,1055,829
23845,1055,828
23850,1054,828
23855,1040,835
23860,1042,826
23865,1030,828
23870,1021,826
23875,1019,828
23880,1014,827
23885,1010,827
23890,1003,833
23895,990,824
23900,999,832
23905,966,826
23910,965,831
23915,960,826
23920,959,829
23925,949,824
23930,943,821
23935,928,824
23940,919,823
23945,917,820
23950,901,824
23955,889,820
23960,880,820
23965,870,820
23970,865,826
23975,852,820
23980,843,814
23985,836,818
23990,828,818
23995,821,816
24000,812,820
24005,810,815
24010,791,815
24015,784,813
24020,777,816
24025,770,818
24030,769,815
24035,758,813
24040,767,811
24045,757,815
24050,757,817
24055,742,814
24060,751,816
24065,746,809
24070,755,817
24075,739,809
24080,745,807
24085,760,807
24090,749,808
24095,756,810
24100,761,809
24105,770,811
24110,769,806
24115,776,808
24120,785,804
24125,788,804
24130,804,802
24135,808,808
24140,813,807
24145,838,803
24150,840,799
24155,853,796
24160,869,799
24165,864,800
24170,887,793
24175,896,799
24180,908,796
24185,926,790
24190,927,796
24195,944,793
24200,965,787
24205,973,790
24210,976,789
24215,999,788
24220,1010,784
24225,1028,784
24230,1027,784
24235,1046,778
24240,1058,776
24245,1063,774
24250,1071,777
24255,1092,771
24260,1101,773
24265,1109,768
24270,1125,772
24275,1126,772
24280,1139,767
24285,1146,766
24290,1154,762
24295,1153,764
24300,1162,762
24305,1169,754
24310,1168,764
24315,1180,762
24320,1173,763
24325,1185,762
24330,1184,762
24335,1184,763
24340,1183,760
24345,1183,760
24350,1185,764
24355,1191,761
24360,1189,757
24365,1192,762
24370,1190,764
24375,1183,759
24380,1178,762
24385,1187,762
24390,1176,765
24395,1169,763
24400,1164,772
24405,1162,768
24410,1166,772
24415,1154,773
24420,1164,772
24425,1162,784
24430,1157,776
24435,1153,780
24440,1149,783
24445,1147,777
24450,1130,787
24455,1127,787
24460,1115,790
24465,1137,795
24470,1129,794
24475,1117,788
24480,1112,794
24485,1123,801
24490,1109,803
24495,1109,804
24500,1104,806
24505,1098,809
24510,1107,812
24515,1098,813
24520,1090,812
24525,1096,816
24530,1100,815
24535,1091,818
24540,1093,819
24545,1089,821
24550,1084,821
24555,1077,826
24560,1082,824
24565,1074,823
24570,1065,826
24575,1064,824
24580,1073,823
24585,1061,828
24590,1067,824
24595,1063,830
24600,1050,827
24605,1056,827
24610,1040,832
24615,1041,831
24620,1034,826
24625,1026,829
24630,1020,826
24635,1018,825
24640,1007,824
24645,1008,830
24650,998,825
24655,988,826
24660,987,821
24665,981,825
24670,972,830
24675,955,828
24680,947,825
24685,948,829
24690,930,826
24695,921,821
24700,916,818
24705,904,825
24710,888,822
24715,880,819
24720,874,820
24725,863,827
24730,859,818
24735,846,823
24740,829,819
24745,822,822
24750,821,816
24755,809,813
24760,800,816
24765,789,814
24770,796,817
24775,784,819
24780,776,818
24785,769,815
24790,766,814
24795,765,813
24800,763,813
24805,748,813
24810,753,810
24815,745,814
24820,744,811
24825,751,816
24830,751,811
24835,748,808
24840,745,807
24845,756,813
24850,758,811
24855,770,806
24860,764,812
24865,764,809
24870,773,809
24875,791,801
24880,790,804
24885,789,809
24890,795,806
24895,809,804
24900,829,805
24905,839,802
24910,843,804
24915,853,805
24920,865,797
24925,874,799
24930,892,798
24935,899,791
24940,912,799
24945,929,789
24950,941,791
24955,949,794
24960,967,789
24965,971,788
24970,984,785
24975,1009,787
24980,1019,780
24985,1024,785
24990,1038,775
24995,1047,778
25000,1065,773
25005,1081,775
25010,1087,774
25015,1101,775
25020,1096,771
25025,1116,767
25030,1126,768
25035,1132,771
25040,1154,772
25045,1153,765
25050,1155,764
25055,1158,764
25060,1162,760
25065,1166,762
25070,1178,760
25075,1179,760
25080,1174,757
25085,1178,755
25090,1189,767
25095,1191,757
25100,1182,757
25105,1186,761
25110,1189,756
25115,1182,758
25120,1182,761
25125,1190,762
25130,1177,761
25135,1183,757
25140,1176,764
25145,1175,763
25150,1176,770
25155,1183,767
25160,1165,768
25165,1168,771
25170,1168,767
25175,1157,776
25180,1159,776
25185,1143,780
25190,1151,784
25195,1147,780
25200,1133,785
25205,1135,783
25210,1132,788
25215,1126,785
25220,1130,790
25225,1129,790
25230,1115,792
25235,1115,800
25240,1126,803
25245,1108,802
25250,1113,802
25255,1105,808
25260,1101,803
25265,1117,817
25270,1108,811
25275,1093,814
25280,1101,813
25285,1089,814
25290,1096,817
25295,1088,816
25300,1088,820
25305,1087,821
25310,1074,822
25315,1078,825
25320,1078,825
25325,1074,824
25330,1076,823
25335,1081,830
25340,1054,832
25345,1058,833
25350,1064,829
25355,1058,835
25360,1043,832
25365,1046,825
25370,1039,830
25375,1040,828
25380,1038,826
25385,1028,824
25390,1026,830
25395,1008,826
25400,1012,829
25405,1003,826
25410,996,831
25415,984,820
25420,977,823
25425,972,826
25430,967,827
25435,954,829
25440,944,823
25445,937,825
25450,925,818
25455,920,825
25460,907,820
25465,905,822
25470,895,822
25475,871,820
25480,867,823
25485,862,825
25490,850,816
25495,836,823
25500,835,819
25505,833,816
25510,816,814
25515,816,821
25520,808,816
25525,806,811
25530,788,816
25535,783,817
25540,781,817
25545,759,808
25550,761,821
25555,749,816
25560,747,806
25565,752,811
25570,753,812
25575,749,818
25580,742,813
25585,750,816
25590,750,811
25595,746,809
25600,749,812
25605,752,810
25610,751,812
25615,759,809
25620,760,810
25625,769,810
25630,781,809
25635,785,800
25640,798,814
25645,800,803
25650,815,803
25655,814,802
25660,838,803
25665,847,800
25670,843,802
25675,862,802
25680,872,793
25685,888,800
25690,892,795
25695,908,800
25700,933,791
25705,932,784
25710,955,788
25715,961,791
25720,975,783
25725,990,786
25730,1006,785
25735,1009,789
25740,1020,782
25745,1039,779
25750,1045,781
25755,1058,779
25760,1072,774
25765,1081,776
25770,1086,773
25775,1098,773
25780,1107,775
25785,1127,767
25790,1138,762
25795,1126,767
25800,1135,763
25805,1148,764
25810,1149,760
25815,1163,765
25820,1159,762
25825,1178,759
25830,1172,758
25835,1186,752
25840,1187,760
25845,1177,762
25850,1183,761
25855,1188,754
25860,1189,762
25865,1185,759
25870,1189,759
25875,1181,764
25880,1177,758
25885,1178,766
25890,1181,765
25895,1182,765
25900,1188,765
25905,1175,767
25910,1173,771
25915,1182,767
25920,1179,773
25925,1173,768
25930,1160,776
25935,1167,775
25940,1152,779
25945,1144,774
25950,1141,781
25955,1147,784
25960,1137,784
25965,1130,785
25970,1144,787
25975,1135,789
25980,1130,790
25985,1124,795
25990,1112,788
25995,1121,795
26000,1115,804
26005,1118,801
26010,1117,801
26015,1106,808
26020,1098,813
26025,1103,811
26030,1104,811
26035,1094,813
26040,1090,810
26045,1098,814
26050,1084,820
26055,1078,816
26060,1082,821
26065,1079,817
26070,1085,820
26075,1082,823
26080,1072,822
26085,1072,831
26090,1066,823
26095,1069,829
26100,1075,824
26105,1065,825
26110,1056,826
26115,1054,830
26120,1049,832
26125,1040,827
26130,1043,834
26135,1038,826
26140,1029,824
26145,1023,831
26150,1010,830
26155,1005,833
26160,995,830
26165,990,829
26170,988,824
26175,982,825
26180,977,828
26185,968,822
26190,955,828
26195,940,824
26200,938,827
26205,938,824
26210,918,828
26215,920,820
26220,896,822
26225,895,825
26230,877,822
26235,867,819
26240,860,825
26245,859,818
26250,853,822
26255,836,820
26260,831,820
26265,816,821
26270,812,815
26275,811,815
26280,802,815
26285,789,821
26290,782,814
26295,778,816
26300,769,817
26305,767,817
26310,765,809
26315,762,814
26320,752,817
26325,746,809
26330,752,812
26335,747,813
26340,740,813
26345,750,811
26350,746,820
26355,739,811
26360,755,817
26365,751,804
26370,767,812
26375,758,810
26380,781,804
26385,767,810
26390,786,809
26395,782,804
26400,793,806
26405,803,810
26410,825,801
26415,828,802
26420,838,800
26425,842,798
26430,852,795
26435,881,800
26440,873,798
26445,900,799
26450,902,793
26455,913,796
26460,932,796
26465,942,789
26470,956,787
26475,962,790
26480,991,786
26485,992,782
26490,1013,784
26495,1019,778
26500,1028,776
26505,1045,781
26510,1057,780
26515,1060,775
26520,1072,772
26525,1085,768
26530,1101,776
26535,1113,771
26540,1111,773
26545,1118,768
26550,1130,762
26555,1146,764
26560,1149,767
26565,1167,765
26570,1157,763
26575,1170,762
26580,1164,760
26585,1166,761
26590,1171,763
26595,1181,764
26600,1180,754
26605,1183,759
26610,1180,758
26615,1194,760
26620,1190,758
26625,1191,757
26630,1186,759
26635,1191,764
26640,1179,755
26645,1183,767
26650,1183,764
26655,1175,764
26660,1173,763
26665,1174,762
26670,1168,769
26675,1163,772
26680,1161,775
26685,1160,777
26690,1166,776
26695,1148,779
26700,1152,778
26705,1150,780
26710,1143,784
26715,1139,785
26720,1140,783
26725,1134,781
26730,1129,790
26735,1130,796
26740,1127,795
26745,1124,796
26750,1115,796
26755,1113,797
26760,1115,803
26765,1110,805
26770,1118,806
26775,1097,807
26780,1093,810
26785,1098,808
26790,1101,813
26795,1091,816
26800,1098,815
26805,1090,813
26810,1097,822
26815,1095,817
26820,1087,827
26825,1090,822
26830,1074,825
26835,1078,819
26840,1071,817
26845,1078,823
26850,1061,826
26855,1066,829
26860,1061,829
26865,1060,828
26870,1058,829
26875,1054,834
26880,1039,827
26885,1033,833
26890,1036,830
26895,1028,827
26900,1025,832
26905,1016,827
26910,1014,828
26915,1012,825
26920,992,836
26925,997,832
26930,986,829
26935,971,827
26940,981,829
26945,949,827
26950,953,823
26955,937,828
26960,939,825
26965,925,827
26970,914,824
26975,906,824
26980,894,818
26985,893,820
26990,885,831
26995,874,820
27000,863,819
27005,854,820
27010,840,817
27015,826,818
27020,826,819
27025,814,817
27030,803,816
27035,796,817
27040,788,818
27045,788,816
27050,781,815
27055,765,811
27060,767,815
27065,767,811
27070,753,816
27075,764,811
27080,747,820
27085,750,814
27090,745,816
27095,752,814
27100,747,809
27105,747,809
27110,749,808
27115,754,809
27120,746,811
27125,753,804
27130,763,810
27135,763,805
27140,769,807
27145,780,808
27150,780,799
27155,791,805
27160,798,804
27165,813,801
27170,821,797
27175,834,803
27180,844,804
27185,845,799
27190,860,798
27195,878,791
27200,884,796
27205,890,794
27210,908,798
27215,928,790
27220,934,796
27225,956,785
27230,954,793
27235,979,794
27240,988,781
27245,990,786
27250,1011,781
27255,1022,779
27260,1034,784
27265,1046,782
27270,1056,771
27275,1071,768
27280,1080,775
27285,1103,774
27290,1100,766
27295,1107,771
27300,1117,769
27305,1128,765
27310,1134,767
27315,1145,765
27320,1151,762
27325,1151,761
27330,1167,768
27335,1167,761
27340,1173,756
27345,1173,764
27350,1180,759
27355,1179,764
27360,1183,762
27365,1182,759
27370,1189,762
27375,1184,761
27380,1188,762
27385,1193,761
27390,1187,756
27395,1186,761
27400,1179,763
27405,1177,764
27410,1180,764
27415,1176,762
27420,1173,762
27425,1173,764
27430,1178,767
27435,1168,771
27440,1167,773
27445,1159,775
27450,1157,777
27455,1156,777
27460,1148,777
27465,1146,782
27470,1143,781
27475,1137,788
27480,1139,785
27485,1146,792
27490,1126,789
27495,1119,787
27500,1132,794
27505,1132,795
27510,1121,797
27515,1114,801
27520,1126,803
27525,1109,805
27530,1111,803
27535,1109,809
27540,1105,809
27545,1105,808
27550,1094,816
27555,1088,814
27560,1107,814
27565,1090,817
27570,1087,818
27575,1088,824
27580,1082,821
27585,1081,819
27590,1075,826
27595,1074,823
27600,1080,824
27605,1074,827
27610,1068,826
27615,1054,824
27620,1059,831
27625,1062,823
27630,1044,828
27635,1044,830
27640,1054,827
27645,1037,828
27650,1032,832
27655,1033,832
27660,1021,830
27665,1019,834
27670,1013,825
27675,997,828
27680,992,830
27685,983,825
27690,982,827
27695,977,825
27700,968,825
27705,947,831
27710,950,827
27715,940,823
27720,934,821
27725,921,819
27730,911,821
27735,910,821
27740,893,825
27745,890,819
27750,878,816
27755,864,822
27760,861,822
27765,851,822
27770,831,818
27775,822,819
27780,820,822
27785,813,818
27790,803,815
27795,799,820
27800,788,815
27805,782,812
27810,778,815
27815,765,814
27820,771,824
27825,765,813
27830,758,815
27835,751,814
27840,766,811
27845,747,814
27850,753,813
27855,754,812
27860,742,811
27865,752,817
27870,752,811
27875,755,804
27880,750,816
27885,759,804
27890,776,809
27895,766,805
27900,770,805
27905,769,810
27910,788,807
27915,800,801
27920,803,803
27925,820,803
27930,823,803
27935,833,808
27940,851,807
27945,854,799
27950,867,796
27955,878,799
27960,898,797
27965,906,792
27970,923,792
27975,928,790
27980,938,793
27985,957,786
27990,968,782
27995,982,789
28000,995,783
28005,1004,780
28010,1025,783
28015,1029,784
28020,1048,776
28025,1051,778
28030,1065,773
28035,1081,780
28040,1083,774
28045,1099,777
28050,1104,767
28055,1118,768
28060,1129,766
28065,1135,770
28070,1135,765
28075,1144,766
28080,1153,767
28085,1167,759
28090,1170,761
28095,1177,758
28100,1170,758
28105,1177,761
28110,1185,763
28115,1175,758
28120,1180,760
28125,1194,760
28130,1187,761
28135,1195,758
28140,1189,760
28145,1184,759
28150,1190,760
28155,1185,762
28160,1195,765
28165,1172,760
28170,1170,762
28175,1178,771
28180,1166,767
28185,1174,773
28190,1166,771
28195,1158,771
28200,1165,770
28205,1153,777
28210,1156,772
28215,1154,778
28220,1145,783
28225,1147,783
28230,1138,788
28235,1134,782
28240,1136,793
28245,1136,794
28250,1119,792
28255,1123,795
28260,1125,791
28265,1117,796
28270,1120,800
28275,1112,801
28280,1108,805
28285,1110,807
28290,1098,808
28295,1105,809
28300,1097,806
28305,1090,809
28310,1083,818
28315,1102,818
28320,1084,817
28325,1091,820
28330,1095,820
28335,1087,823
28340,1081,822
28345,1089,822
28350,1077,822
28355,1073,830
28360,1081,827
28365,1067,826
28370,1067,826
28375,1058,825
28380,1053,831
28385,1054,824
28390,1052,834
28395,1047,828
28400,1040,832
28405,1041,829
28410,1031,824
28415,1025,827
28420,1025,827
28425,1012,834
28430,998,832
28435,1004,828
28440,987,827
28445,982,826
28450,973,824
28455,972,821
28460,956,826
28465,963,822
28470,943,825
28475,930,828
28480,927,824
28485,913,819
28490,907,823
28495,895,824
28500,877,824
28505,881,815
28510,869,822
28515,863,821
28520,846,820
28525,839,814
28530,830,821
28535,824,824
28540,808,815
28545,807,818
28550,801,817
28555,791,813
28560,782,820
28565,790,819
28570,763,818
28575,761,820
28580,763,813
28585,756,809
28590,754,816
28595,748,813
28600,755,816
28605,755,811
28610,740,810
28615,747,807
28620,733,809
28625,753,814
28630,749,810
28635,763,810
28640,756,809
28645,755,808
28650,767,805
28655,759,811
28660,779,804
28665,786,804
28670,788,803
28675,795,805
28680,814,802
28685,824,806
28690,833,801
28695,841,804
28700,859,804
28705,861,796
28710,873,798
28715,880,797
28720,891,801
28725,905,796
28730,939,787
28735,930,791
28740,953,789
28745,962,788
28750,977,794
28755,988,785
28760,995,787
28765,1020,785
28770,1031,777
28775,1038,777
28780,1048,779
28785,1062,768
28790,1073,780
28795,1073,772
28800,1091,774
28805,1094,769
28810,1113,772
28815,1106,769
28820,1135,768
28825,1132,766
28830,1145,765
28835,1145,765
28840,1150,769
28845,1169,765
28850,1172,765
28855,1173,762
28860,1170,763
28865,1180,759
28870,1181,762
28875,1175,763
28880,1183,761
28885,1183,757
28890,1189,758
28895,1182,762
28900,1188,762
28905,1196,757
28910,1191,760
28915,1186,763
28920,1186,763
28925,1190,769
28930,1174,761
28935,1174,768
28940,1175,768
28945,1170,767
28950,1154,770
28955,1171,775
28960,1165,767
28965,1160,778
28970,1156,775
28975,1160,782
28980,1148,778
28985,1133,784
28990,1131,780
28995,1142,788
29000,1131,795
29005,1129,793
29010,1125,792
29015,1127,795
29020,1118,798
29025,1115,800
29030,1117,799
29035,1123,798
29040,1114,807
29045,1096,808
29050,1101,808
29055,1101,808
29060,1104,806
29065,1098,816
29070,1090,820
29075,1083,822
29080,1086,822
29085,1073,815
29090,1085,819
29095,1086,817
29100,1082,825
29105,1079,821
29110,1078,828
29115,1069,825
29120,1069,831
29125,1073,827
29130,1062,829
29135,1056,830
29140,1064,828
29145,1048,825
29150,1046,829
29155,1042,833
29160,1049,832
29165,1032,830
29170,1027,830
29175,1015,833
29180,1011,830
29185,1012,826
29190,1002,835
29195,993,829
29200,979,829
29205,988,823
29210,969,827
29215,968,821
29220,954,827
29225,953,825
29230,940,826
29235,938,823
29240,925,822
29245,904,826
29250,898,823
29255,883,819
29260,884,823
29265,880,819
29270,851,821
29275,848,816
29280,837,823
29285,836,817
29290,835,822
29295,811,817
29300,801,814
29305,804,821
29310,790,823
29315,780,815
29320,789,810
29325,777,811
29330,775,818
29335,767,817
29340,758,819
29345,756,812
29350,759,816
29355,745,813
29360,749,816
29365,753,810
29370,752,813
29375,754,812
29380,754,808
29385,762,811
29390,755,813
29395,763,809
29400,768,807
29405,764,811
29410,767,805
29415,779,803
29420,784,804
29425,793,805
29430,806,807
29435,801,811
29440,818,799
29445,827,801
29450,839,803
29455,843,797
29460,854,796
29465,866,797
29470,886,798
29475,899,794
29480,909,798
29485,926,790
29490,931,796
29495,944,794
29500,956,791
29505,973,786
29510,981,788
29515,984,783
29520,1004,781
29525,1009,778
29530,1037,776
29535,1045,781
29540,1051,777
29545,1063,776
29550,1076,774
29555,1084,775
29560,1105,775
29565,1108,771
29570,1113,769
29575,1129,767
29580,1136,769
29585,1149,765
29590,1151,765
29595,1150,763
29600,1166,767
29605,1170,757
29610,1166,760
29615,1179,762
29620,1184,763
29625,1173,759
29630,1182,762
29635,1193,760
29640,1185,762
29645,1191,760
29650,1180,756
29655,1182,759
29660,1187,761
29665,1192,764
29670,1181,760
29675,1181,760
29680,1174,764
29685,1180,762
29690,1174,763
29695,1181,772
29700,1182,765
29705,1173,774
29710,1169,767
29715,1161,774
29720,1169,772
29725,1160,780
29730,1146,773
29735,1159,780
29740,1136,782
29745,1151,785
29750,1139,789
29755,1136,790
29760,1129,786
29765,1132,786
29770,1130,794
29775,1123,793
29780,1115,801
29785,1118,801
29790,1110,802
29795,1114,807
29800,1105,808
29805,1103,808
29810,1099,809
29815,1100,817
29820,1100,808
29825,1093,815
29830,1095,817
29835,1097,815
29840,1086,819
29845,1088,822
29850,1087,822
29855,1079,824
29860,1077,822
29865,1086,822
29870,1074,829
29875,1075,824
29880,1069,827
29885,1065,824
29890,1063,826
29895,1062,829
29900,1059,832
29905,1056,829
29910,1063,829
29915,1038,830
29920,1032,829
29925,1033,830
29930,1016,829
29935,1016,828
29940,1015,830
29945,1008,827
29950,995,825
29955,987,830
29960,982,826
29965,975,830
29970,970,828
29975,963,826
29980,952,831
29985,946,823
29990,931,822
29995,928,823
30000,916,821
30005,910,823
30010,904,826
30015,888,821
30020,882,820
30025,868,817
30030,852,815
30035,856,818
30040,834,820
30045,833,819
30050,827,817
30055,807,823
30060,806,822
30065,804,822
30070,793,815
30075,785,818
30080,785,813
30085,777,818
30090,766,809
30095,757,815
30100,758,811
30105,749,813
30110,746,808
30115,749,811
30120,753,814
30125,740,819
30130,745,814
30135,742,812
30140,756,812
30145,751,810
30150,756,812
30155,759,809
30160,763,812
30165,772,812
30170,777,808
30175,780,810
30180,793,809
30185,799,808
30190,806,799
30195,813,809
30200,813,804
30205,828,801
30210,846,799
30215,851,800
30220,855,804
30225,878,792
30230,882,797
30235,896,797
30240,911,789
30245,919,794
30250,929,797
30255,950,787
30260,958,787
30265,971,787
30270,989,784
30275,1004,783
30280,1013,781
30285,1018,779
30290,1035,777
30295,1052,781
30300,1071,773
30305,1067,774
30310,1079,772
30315,1089,773
30320,1100,767
30325,1106,769
30330,1123,773
30335,1137,766
30340,1141,775
30345,1151,766
30350,1149,764
30355,1157,760
30360,1164,761
30365,1174,761
30370,1174,760
30375,1178,760
30380,1192,762
30385,1184,763
30390,1180,758
30395,1188,759
30400,1189,760
30405,1194,759
30410,1185,760
30415,1185,761
30420,1180,763
30425,1188,766
30430,1177,765
30435,1186,765
30440,1183,763
30445,1174,767
30450,1181,764
30455,1181,769
30460,1172,768
30465,1167,772
30470,1170,770
30475,1162,766
30480,1155,775
30485,1159,783
30490,1154,782
30495,1156,783
30500,1140,787
30505,1135,781
30510,1130,787
30515,1146,789
30520,1121,790
30525,1124,790
30530,1124,800
30535,1121,804
30540,1120,793
30545,1113,802
30550,1115,802
30555,1106,807
30560,1116,810
30565,1093,811
30570,1089,814
30575,1104,816
30580,1095,810
30585,1089,815
30590,1092,819
30595,1090,821
30600,1092,815
30605,1093,822
30610,1081,824
30615,1072,825
30620,1071,826
30625,1072,823
30630,1063,827
30635,1063,826
30640,1066,830
30645,1059,830
30650,1061,825
30655,1057,829
30660,1048,832
30665,1044,830
30670,1043,831
30675,1033,834
30680,1036,827
30685,1033,829
30690,1026,826
30695,1010,835
30700,1002,834
30705,1002,832
30710,1002,828
30715,980,827
30720,981,826
30725,967,827
30730,972,828
30735,953,828
30740,938,822
30745,940,830
30750,928,824
30755,919,824
30760,914,823
30765,898,822
30770,889,823
30775,888,818
30780,879,817
30785,861,817
30790,859,822
30795,845,816
30800,838,810
30805,826,824
30810,813,816
30815,814,813
30820,803,817
30825,794,813
30830,793,816
30835,782,813
30840,776,818
30845,763,813
30850,768,816
30855,760,810
30860,757,812
30865,754,809
30870,753,809
30875,758,813
30880,752,814
30885,745,819
30890,747,811
30895,760,810
30900,746,811
30905,752,810
30910,759,815
30915,758,806
30920,769,809
30925,768,805
30930,777,810
30935,785,807
30940,795,809
30945,803,802
30950,802,808
30955,812,805
30960,827,801
30965,832,805
30970,844,800
30975,853,801
30980,868,794
30985,888,797
30990,889,794
30995,906,792
31000,925,790
31005,932,791
31010,948,789
31015,958,791
31020,969,790
31025,991,787
31030,986,781
31035,1002,775
31040,1024,781
31045,1037,779
31050,1037,776
31055,1063,778
31060,1073,776
31065,1082,782
31070,1084,771
31075,1090,769
31080,1104,768
31085,1123,770
31090,1123,765
31095,1139,766
31100,1137,763
31105,1151,766
31110,1159,769
31115,1161,757
31120,1162,763
31125,1171,761
31130,1176,759
31135,1174,757
31140,1170,759
31145,1183,760
31150,1181,757
31155,1184,759
31160,1187,763
31165,1184,758
31170,1189,764
31175,1177,760
31180,1190,760
31185,1180,763
31190,1175,761
31195,1182,767
31200,1188,768
31205,1184,767
31210,1177,769
31215,1164,767
31220,1174,767
31225,1162,771
31230,1155,770
31235,1152,771
31240,1169,772
31245,1154,773
31250,1151,779
31255,1139,786
31260,1146,782
31265,1139,783
31270,1136,787
31275,1137,790
31280,1132,791
31285,1122,792
31290,1121,798
31295,1113,797
31300,1111,800
31305,1111,805
31310,1107,804
31315,1105,808
31320,1104,810
31325,1102,814
31330,1106,811
31335,1093,814
31340,1096,812
31345,1094,811
31350,1091,814
31355,1095,818
31360,1074,817
31365,1082,823
31370,1085,822
31375,1081,823
31380,1082,820
31385,1075,825
31390,1067,825
31395,1071,820
31400,1062,822
31405,1051,827
31410,1055,824
31415,1058,828
31420,1049,829
31425,1039,827
31430,1044,830
31435,1027,834
31440,1031,836
31445,1023,832
31450,1020,827
31455,1020,830
31460,1006,834
31465,995,825
31470,993,821
31475,979,829
31480,970,825
31485,962,827
31490,950,829
31495,947,825
31500,940,827
31505,922,822
31510,920,823
31515,917,819
31520,902,825
31525,891,823
31530,891,822
31535,875,821
31540,867,818
31545,858,820
31550,850,817
31555,843,822
31560,832,823
31565,823,816
31570,815,819
31575,810,822
31580,791,813
31585,782,817
31590,791,815
31595,774,808
31600,770,815
31605,762,818
31610,767,810
31615,761,815
31620,753,821
31625,750,818
31630,747,814
31635,753,812
31640,748,816
31645,750,815
31650,752,810
31655,757,808
31660,757,813
31665,756,810
31670,757,808
31675,767,811
31680,766,810
31685,784,802
31690,786,808
31695,782,806
31700,798,809
31705,806,804
31710,816,804
31715,813,799
31720,831,803
31725,842,802
31730,864,802
31735,859,800
31740,872,800
31745,887,799
31750,903,792
31755,900,790
31760,933,790
31765,934,787
31770,948,789
31775,961,788
31780,988,791
31785,987,787
31790,1000,780
31795,1004,779
31800,1029,784
31805,1042,776
31810,1046,776
31815,1064,781
31820,1076,772
31825,1089,778
31830,1101,775
31835,1104,773
31840,1111,769
31845,1115,767
31850,1130,772
31855,1143,771
31860,1148,768
31865,1149,764
31870,1148,766
31875,1169,763
31880,1172,759
31885,1170,762
31890,1168,756
31895,1179,763
31900,1181,754
31905,1181,762
31910,1192,763
31915,1193,754
31920,1190,761
31925,1191,765
31930,1193,767
31935,1188,765
31940,1187,760
31945,1186,763
31950,1180,765
31955,1174,764
31960,1174,769
31965,1183,765
31970,1178,770
31975,1173,769
31980,1160,767
31985,1159,767
31990,1161,775
31995,1154,778
32000,1151,776
32005,1154,776
32009,1150,780
32015,1137,785
32020,1136,787
32025,1136,792
32030,1128,793
32034,1125,790
32040,1133,794
32045,1128,790
32049,1117,799
32055,1117,799
32060,1101,802
32064,1112,801
32070,1103,811
32075,1103,803
32080,1097,807
32085,1095,809
32090,1103,813
32095,1093,818
32100,1093,820
32104,1095,816
32110,1089,812
32115,1086,816
32119,1076,821
32125,1074,824
32130,1078,826
32134,1083,824
32140,1077,824
32145,1069,831
32150,1065,821
32155,1063,833
32159,1066,827
32165,1061,826
32170,1061,830
32174,1057,828
32180,1035,826
32185,1037,826
32189,1041,826
32195,1036,833
32200,1031,833
32205,1018,831
32210,1016,830
32215,1002,833
32220,991,834
32225,990,826
32229,996,826
32235,978,827
32240,974,827
32244,961,826
32250,947,819
32255,949,829
32259,934,823
32265,930,822
32270,925,820
32275,910,822
32280,897,826
32284,881,824
32290,876,818
32295,874,824
32299,867,822
32305,853,818
32310,835,815
32314,845,821
32320,825,815
32325,819,818
32330,798,822
32335,803,821
32340,794,817
32345,781,813
32350,782,813
32354,774,814
32360,771,813
32365,762,811
32369,759,819
32375,757,816
32380,754,821
32384,754,811
32390,748,816
32395,749,808
32400,744,813
32405,744,811
32409,747,816
32415,754,807
32420,753,808
32424,746,805
32430,759,806
32435,772,811
32439,778,810
32445,783,807
32450,786,808
32455,796,802
32460,792,798
32465,806,803
32470,820,803
32475,831,803
32479,830,799
32485,846,803
32490,860,798
32494,867,803
32500,879,801
32505,898,798
32509,901,792
32515,916,793
32520,932,793
32525,950,790
32530,952,792
32534,962,794
32540,979,789
32545,990,785
32549,1002,783
32555,1014,780
32560,1030,779
32564,1055,778
32570,1051,779
32575,1064,780
32580,1077,774
32585,1084,771
32590,1100,770
32595,1110,771
32600,1117,772
32604,1126,765
32610,1127,768
32615,1147,765
32619,1157,757
32625,1152,764
32630,1159,761
32634,1165,762
32640,1169,764
32645,1182,761
32650,1170,760
32655,1183,757
32659,1185,752
32665,1178,759
32670,1187,763
32674,1189,760
32680,1190,764
32685,1188,766
32689,1182,761
32695,1189,760
32700,1179,759
32705,1182,765
32710,1182,762
32715,1178,763
32720,1175,762
32725,1185,766
32729,1162,765
32735,1171,773
32740,1170,770
32744,1157,778
32750,1160,780
32755,1156,777
32759,1160,770
32765,1146,784
32770,1139,780
32775,1140,786
32780,1138,787
32785,1124,785
32790,1133,792
32795,1129,795
32800,1118,794
32805,1119,800
32810,1119,794
32815,1117,797
32820,1113,798
32825,1105,800
32830,1103,807
32835,1100,811
32840,1099,810
32845,1109,810
32850,1103,814
32855,1099,821
32860,1093,815
32865,1099,815
32870,1090,812
32875,1080,820
32880,1087,822
32885,1086,818
32890,1074,820
32895,1073,817
32900,1079,824
32905,1065,823
32910,1064,826
32915,1051,831
32920,1058,826
32925,1054,827
32930,1059,826
32935,1047,830
32940,1048,830
32945,1031,828
32950,1029,826
32955,1019,829
32960,1027,825
32965,1022,827
32970,1019,829
32975,998,830
32980,998,828
32985,1001,827
32990,984,826
32995,986,821
33000,965,829
33005,952,826
33010,945,825
33015,939,822
33020,932,822
33025,918,820
33030,921,827
33035,915,819
33040,894,825
33045,894,823
33050,881,821
33055,868,816
33060,853,825
33065,848,822
33070,844,816
33075,835,822
33080,828,822
33085,811,813
33090,807,815
33095,804,815
33100,785,812
33105,776,815
33110,778,817
33115,766,815
33120,763,816
33125,760,817
33130,754,815
33135,754,821
33140,746,814
33145,746,814
33150,751,808
33155,746,814
33160,752,810
33165,741,815
33170,748,808
33175,745,813
33180,755,809
33185,756,808
33190,756,812
33195,771,806
33200,773,803
33205,783,803
33210,789,803
33215,794,807
33220,806,797
33225,806,802
33230,826,800
33235,835,804
33240,842,799
33245,858,801
33250,860,804
33255,875,794
33260,891,797
33265,901,794
33270,920,794
33275,934,798
33280,945,795
33285,945,791
33290,970,784
33295,986,789
33300,994,781
33305,1009,785
33310,1024,782
33315,1032,781
33320,1034,779
33325,1052,779
33330,1065,776
33335,1075,773
33340,1088,775
33345,1102,771
33350,1100,772
33355,1121,768
33360,1116,766
33365,1141,765
33370,1133,769
33375,1150,760
33380,1148,766
33385,1150,760
33390,1174,760
33395,1170,763
33400,1173,763
33405,1179,760
33410,1181,761
33415,1178,757
33420,1188,762
33425,1182,759
33430,1179,765
33435,1196,760
33440,1181,760
33445,1189,760
33450,1186,762
33455,1184,764
33460,1180,761
33465,1176,765
33470,1184,765
33475,1175,769
33480,1181,770
33485,1180,769
33490,1179,767
33495,1172,768
33500,1166,774
33505,1160,774
33510,1160,775
33515,1159,778
33520,1141,779
33525,1144,782
33530,1143,777
33535,1143,787
33540,1140,785
33545,1133,792
33550,1128,786
33555,1129,799
33560,1126,793
33565,1115,800
33570,1119,798
33575,1120,804
33580,1119,801
33585,1105,812
33590,1099,805
33595,1100,808
33600,1104,813
33605,1097,812
33610,1102,817
33615,1097,815
33620,1092,811
33625,1091,822
33630,1090,815
33635,1088,824
33640,1079,825
33645,1087,821
33650,1080,820
33655,1065,827
33660,1067,822
33665,1073,832
33670,1071,830
33675,1060,826
33680,1062,829
33685,1054,828
33690,1057,830
33695,1054,824
33700,1043,825
33705,1033,831
33710,1033,826
33715,1030,829
33720,1021,825
33725,1018,827
33730,1016,828
33735,1008,827
33740,996,832
33745,985,824
33750,978,825
33755,968,828
33760,968,826
33765,962,819
33770,943,827
33775,941,820
33780,934,823
33785,920,821
33790,913,822
33795,896,826
33800,885,825
33805,877,823
33810,867,822
33815,867,824
33820,856,820
33825,838,817
33830,836,814
33835,830,816
33840,817,817
33845,813,817
33850,801,815
33855,794,821
33860,779,814
33865,771,815
33870,769,817
33875,766,820
33880,759,813
33885,765,812
33890,757,813
33895,754,815
33900,744,812
33905,741,812
33910,743,813
33915,752,815
33920,747,810
33925,750,806
33930,756,815
33935,748,816
33940,754,810
33945,766,811
33950,765,807
33955,779,810
33960,778,806
33965,786,806
33970,800,805
33975,796,808
33980,806,800
33985,827,802
33990,828,802
33995,842,805
34000,848,801
34005,863,798
34010,868,797
34015,885,799
34020,902,795
34025,904,790
34030,925,794
34035,934,791
34040,944,785
34045,962,786
34050,966,786
34055,985,786
34060,999,785
34065,1028,781
34070,1023,786
34075,1034,782
34080,1039,779
34085,1056,772
34090,1063,773
34095,1075,777
34100,1093,775
34105,1096,771
34110,1111,772
34115,1111,765
34120,1139,768
34125,1137,764
34130,1140,769
34135,1148,765
34140,1142,766
34145,1164,768
34150,1177,758
34155,1172,762
34160,1169,760
34165,1176,759
34170,1177,759
34175,1180,758
34180,1187,764
34185,1180,755
34190,1174,757
34195,1195,763
34200,1193,762
34205,1184,756
34210,1184,765
34215,1181,764
34220,1187,764
34225,1175,762
34230,1183,766
34235,1180,764
34240,1179,773
34245,1165,767
34250,1168,773
34255,1170,775
34260,1160,770
34265,1160,774
34270,1149,781
34275,1146,777
34280,1143,780
34285,1143,783
34290,1140,788
34295,1131,785
34300,1126,783
34305,1132,791
34310,1134,791
34315,1124,799
34320,1133,797
34325,1119,798
34330,1118,798
34335,1117,804
34340,1110,802
34345,1108,802
34350,1100,808
34355,1103,812
34360,1107,809
34365,1099,806
34370,1092,820
34375,1096,815
34380,1090,823
34385,1085,826
34390,1087,820
34395,1090,821
34400,1084,822
34405,1081,822
34410,1083,830
34415,1070,825
34420,1073,825
34425,1070,831
34430,1065,828
34435,1059,826
34440,1064,826
34445,1055,828
34450,1046,830
34455,1041,831
34460,1037,833
34465,1034,828
34470,1036,831
34475,1028,830
34480,1016,834
34485,1012,827
34490,997,829
34495,1001,830
34500,979,827
34505,975,823
34510,977,827
34515,965,832
34520,960,829
34525,952,826
34530,942,825
34535,931,822
34540,919,819
34545,914,823
34550,908,822
34555,888,823
34560,889,817
34565,875,822
34570,863,814
34575,851,823
34580,842,818
34585,837,823
34590,815,812
34595,815,814
34600,817,821
34605,806,816
34610,791,816
34615,785,812
34620,786,816
34625,783,819
34630,773,814
34635,764,812
34640,760,813
34645,759,816
34650,763,815
34655,753,814
34660,759,817
34665,755,817
34670,761,816
34675,750,816
34680,752,807
34685,747,815
34690,752,811
34695,742,812
34700,759,809
34705,766,809
34710,770,814
34715,778,813
34720,788,807
34725,786,809
34730,798,801
34735,808,802
34740,810,800
34745,827,802
34750,832,798
34755,841,806
34760,860,805
34765,867,796
34770,875,794
34775,892,799
34780,915,790
34785,916,799
34790,925,798
34795,937,784
34800,957,787
34805,964,794
34810,977,794
34815,992,784
34820,1006,785
34825,1012,788
34830,1024,775
34835,1030,782
34840,1043,775
34845,1060,774
34850,1081,776
34855,1092,777
34860,1093,769
34865,1099,768
34870,1107,768
34875,1129,768
34880,1138,765
34885,1146,765
34890,1142,767
34895,1149,766
34900,1157,762
34905,1162,771
34910,1166,767
34915,1173,753
34920,1174,762
34925,1177,759
34930,1170,755
34935,1189,762
34940,1184,761
34945,1192,759
34950,1186,760
34955,1192,757
34960,1192,761
34965,1189,760
34970,1184,761
34975,1177,765
34980,1174,760
34985,1172,765
34990,1182,763
34995,1177,768
35000,1179,767
35005,1174,772
35010,1162,775
35015,1164,769
35020,1166,775
35025,1155,776
35030,1152,784
35035,1146,781
35040,1148,782
35045,1135,782
35050,1142,787
35055,1134,785
35060,1131,786
35065,1119,788
35070,1128,786
35075,1129,794
35080,1119,799
35085,1121,796
35090,1109,799
35095,1113,800
35100,1100,799
35105,1105,810
35110,1115,807
35115,1108,817
35120,1103,812
35125,1091,813
35130,1095,811
35135,1079,817
35140,1088,819
35145,1086,818
35150,1073,818
35155,1086,821
35160,1076,828
35165,1068,824
35170,1072,828
35175,1071,827
35180,1065,826
35185,1069,824
35190,1057,831
35195,1056,829
35200,1053,824
35205,1049,827
35210,1041,830
35215,1041,833
35220,1031,824
35225,1036,833
35230,1024,828
35235,1028,826
35240,1005,826
35245,1004,826
35250,1004,831
35255,992,824
35260,983,829
35265,982,824
35270,961,822
35275,956,829
35280,956,824
35285,943,820
35290,943,826
35295,923,824
35300,905,827
35305,903,824
35310,896,828
35315,880,824
35320,880,820
35325,866,822
35330,866,826
35335,846,820
35340,843,818
35345,832,820
35350,824,821
35355,819,821
35360,814,818
35365,801,814
35370,793,820
35375,784,820
35380,770,819
35385,775,812
35390,762,816
35395,761,816
35400,755,817
35405,754,814
35410,755,810
35415,750,813
35420,750,811
35425,746,812
35430,748,813
35435,743,808
35440,750,810
35445,756,815
35450,745,810
35455,759,813
35460,765,810
35465,774,807
35470,761,810
35475,771,805
35480,785,805
35485,786,810
35490,809,807
35495,817,803
35500,812,799
35505,827,798
35510,846,799
35515,858,802
35520,863,797
35525,879,802
35530,890,800
35535,898,801
35540,916,795
35545,917,795
35550,932,796
35555,940,791
35560,963,790
35565,977,789
35570,991,784
35575,999,780
35580,1008,777
35585,1021,779
35590,1034,784
35595,1040,783
35600,1072,776
35605,1064,770
35610,1078,774
35615,1087,773
35620,1099,776
35625,1107,765
35630,1120,768
35635,1126,773
35640,1139,765
35645,1142,770
35650,1159,769
35655,1154,766
35660,1162,763
35665,1172,763
35670,1175,759
35675,1169,763
35680,1183,760
35685,1177,758
35690,1182,760
35695,1187,766
35700,1192,759
35705,1184,757
35710,1188,759
35715,1178,767
35720,1194,758
35725,1194,759
35730,1179,759
35735,1182,764
35740,1174,763
35745,1177,760
35750,1179,767
35755,1177,767
35760,1181,767
35765,1171,768
35770,1163,769
35775,1155,777
35780,1153,775
35785,1151,778
35790,1153,779
35795,1149,780
35800,1147,787
35805,1146,786
35810,1138,782
35815,1130,784
35820,1130,785
35825,1130,791
35830,1124,798
35835,1118,797
35840,1120,805
35845,1108,801
35850,1113,806
35855,1112,805
35860,1104,803
35865,1109,804
35870,1108,808
35875,1106,805
35880,1094,814
35885,1096,816
35890,1095,816
35895,1089,818
35900,1099,822
35905,1087,820
35910,1084,822
35915,1087,825
35920,1079,822
35925,1072,826
35930,1059,827
35935,1071,831
35940,1071,830
35945,1058,833
35950,1063,826
35955,1053,826
35960,1062,828
35965,1048,823
35970,1036,830
35975,1037,830
35980,1035,830
35985,1022,827
35990,1019,829
35995,1009,827
36000,1001,829
36005,1010,828
36010,987,827
36015,1005,827
36020,981,826
36025,982,830
36030,963,829
36035,958,830
36040,950,825
36045,939,826
36050,933,826
36055,922,824
36060,907,827
36065,906,824
36070,894,819
36075,877,820
36080,876,825
36085,870,817
36090,857,818
36095,842,818
36100,841,822
36105,832,824
36110,819,822
36115,813,818
36120,803,818
36125,799,819
36130,786,816
36135,782,816
36140,792,815
36145,766,821
36150,771,813
36155,759,819
36160,757,812
36165,744,813
36170,752,810
36175,739,810
36180,734,814
36185,743,809
36190,749,813
36195,752,813
36200,753,809
36205,758,809
36210,754,810
36215,765,815
36220,768,809
36225,768,809
36230,775,804
36235,779,810
36240,799,805
36245,802,805
36250,808,801
36255,817,804
36260,824,803
36265,842,796
36270,855,799
36275,863,805
36280,868,797
36285,874,798
36290,895,796
36295,898,793
36300,914,799
36305,924,790
36310,940,786
36315,966,789
36320,966,782
36325,987,781
36330,995,783
36335,996,780
36340,1014,780
36345,1028,781
36350,1048,776
36355,1063,779
36360,1074,776
36365,1079,773
36370,1086,775
36375,1096,777
36380,1108,771
36385,1120,770
36390,1117,770
36395,1137,764
36400,1135,763
36405,1146,764
36410,1154,763
36415,1160,763
36420,1178,761
36425,1162,761
36430,1170,760
36435,1178,760
36440,1186,763
36445,1184,757
36450,1179,757
36455,1186,757
36460,1185,757
36465,1189,761
36470,1192,764
36475,1192,758
36480,1181,757
36485,1175,757
36490,1189,763
36495,1186,765
36500,1182,762
36505,1180,762
36510,1170,768
36515,1165,772
36520,1166,769
36525,1171,769
36530,1166,771
36535,1154,767
36540,1148,776
36545,1155,783
36550,1150,780
36555,1143,788
36560,1139,780
36565,1136,790
36570,1137,791
36575,1124,793
36580,1134,798
36585,1124,794
36590,1120,795
36595,1104,799
36600,1108,800
36605,1110,803
36610,1113,801
36615,1108,811
36620,1105,811
36625,1097,805
36630,1099,815
36635,1090,814
36640,1104,818
36645,1095,808
36650,1094,819
36655,1083,824
36660,1091,823
36665,1084,820
36670,1077,822
36675,1078,826
36680,1078,822
36685,1071,825
36690,1066,822
36695,1064,831
36700,1060,831
36705,1059,827
36710,1059,831
36715,1055,829
36720,1049,826
36725,1040,829
36730,1051,829
36735,1038,833
36740,1031,824
36745,1026,831
36750,1025,831
36755,1011,829
36760,1003,829
36765,1001,825
36770,1001,824
36775,992,820
36780,969,822
36785,978,827
36790,953,822
36795,955,832
36800,940,827
36805,937,821
36810,922,830
36815,914,822
36820,910,822
36825,901,823
36830,889,823
36835,875,824
36840,870,819
36845,857,823
36850,849,824
36855,840,820
36860,830,820
36865,827,816
36870,812,814
36875,807,813
36880,799,813
36885,790,816
36890,776,820
36895,773,819
36900,775,815
36905,772,813
36910,754,812
36915,763,818
36920,760,815
36925,760,817
36930,757,815
36935,757,810
36940,748,810
36945,747,815
36950,750,813
36955,747,814
36960,757,808
36965,757,813
36970,750,809
36975,764,807
36980,766,811
36985,780,807
36990,777,810
36995,790,800
