timestamp_ms,ir_finger,ir_toe
0,1042,774
5,1042,773
10,1070,769
15,1079,772
20,1089,764
25,1098,761
30,1109,759
35,1118,760
40,1126,760
45,1136,759
50,1148,756
55,1163,749
60,1158,746
65,1164,748
70,1166,750
75,1178,750
80,1181,743
85,1175,750
90,1191,739
95,1189,737
100,1185,744
105,1180,742
110,1195,735
115,1182,745
120,1183,741
125,1187,744
130,1178,741
135,1180,745
140,1181,745
145,1185,743
150,1181,744
155,1180,751
160,1177,748
165,1180,753
170,1158,751
175,1155,756
180,1164,756
185,1142,760
190,1150,762
195,1147,766
200,1141,773
205,1135,769
210,1130,775
215,1130,775
220,1119,780
225,1126,783
230,1119,791
235,1125,786
240,1121,790
245,1105,797
250,1108,797
255,1107,802
260,1115,802
265,1103,811
270,1091,811
275,1103,814
280,1095,814
285,1092,823
290,1093,816
295,1092,822
300,1087,825
305,1089,837
310,1083,832
315,1076,831
320,1077,832
325,1073,833
330,1071,837
335,1061,846
340,1054,842
345,1061,845
350,1057,840
355,1054,846
360,1038,843
365,1036,844
370,1029,841
375,1026,846
380,1022,842
385,1015,843
390,1002,842
395,1008,847
400,997,851
405,988,838
410,977,840
415,967,841
420,959,843
425,954,839
430,944,835
435,922,830
440,924,832
445,910,830
450,904,843
455,891,836
460,885,832
465,864,835
470,852,832
475,855,826
480,835,836
485,835,826
490,814,835
495,812,825
500,802,822
505,792,823
510,793,825
515,790,825
520,770,825
525,760,824
530,770,821
535,762,821
540,755,814
545,754,820
550,761,824
555,747,831
560,755,821
565,751,817
570,741,816
575,740,820
580,743,816
585,765,823
590,754,818
595,754,818
600,776,816
605,776,811
610,769,812
615,795,812
620,790,814
625,805,811
630,814,810
635,832,809
640,842,807
645,849,807
650,867,807
655,874,806
660,883,800
665,882,796
670,904,800
675,916,793
680,932,791
685,946,791
690,961,792
695,976,782
700,985,786
705,992,787
710,1015,782
715,1023,776
720,1035,777
725,1044,773
730,1069,767
735,1073,767
740,1087,765
745,1096,765
750,1109,762
755,1121,762
760,1126,762
765,1136,753
770,1137,761
775,1148,758
780,1152,742
785,1166,746
790,1171,747
795,1175,750
800,1178,740
805,1175,741
810,1178,738
815,1186,739
820,1198,745
825,1188,740
830,1184,738
835,1179,741
840,1192,744
845,1182,742
850,1186,740
855,1180,743
860,1189,748
865,1177,741
870,1170,751
875,1176,749
880,1168,755
885,1172,753
890,1160,756
895,1159,751
900,1164,759
905,1153,758
910,1154,763
915,1146,759
920,1147,764
925,1137,771
930,1138,773
935,1136,775
940,1125,780
945,1127,782
950,1125,789
955,1118,786
960,1114,789
965,1115,799
970,1111,802
975,1104,804
980,1102,805
985,1102,808
990,1095,807
995,1095,811
1000,1099,816
1004,1093,816
1010,1087,826
1014,1093,817
1020,1080,827
1025,1087,830
1030,1072,830
1035,1069,829
1040,1070,832
1045,1075,835
1050,1064,837
1055,1069,838
1060,1053,840
1065,1059,848
1070,1052,839
1075,1052,840
1080,1044,839
1085,1042,840
1090,1029,843
1095,1027,847
1100,1020,846
1105,1015,846
1110,1011,844
1115,994,842
1120,989,841
1125,990,841
1130,973,845
1135,970,838
1140,959,841
1145,947,846
1150,945,841
1155,930,837
1160,931,838
1165,920,842
1170,899,836
1175,898,835
1180,886,831
1185,873,830
1190,858,831
1195,856,832
1200,848,833
1205,831,830
1210,818,829
1215,816,827
1220,801,830
1225,794,827
1230,798,826
1235,782,823
1240,778,826
1245,771,829
1250,768,824
1255,762,823
1260,765,825
1265,752,819
1270,749,819
1275,757,819
1280,737,818
1285,750,820
1290,756,819
1295,761,818
1300,755,821
1305,748,817
1310,760,818
1315,767,808
1320,768,814
1325,773,809
1330,768,816
1335,785,806
1340,800,810
1345,796,814
1350,815,808
1355,825,809
1360,826,805
1365,845,805
1370,850,803
1375,865,795
1380,881,798
1385,895,798
1390,905,796
1395,922,797
1400,933,799
1405,941,786
1410,956,786
1415,977,786
1420,993,790
1425,996,782
1430,1016,785
1435,1027,773
1440,1032,780
1445,1053,777
1450,1070,770
1455,1081,766
1460,1085,763
1465,1100,763
1470,1112,764
1475,1112,759
1480,1127,755
1485,1136,756
1490,1139,755
1495,1140,751
1500,1153,749
1505,1150,750
1510,1162,746
1515,1165,744
1520,1173,744
1525,1175,737
1530,1183,745
1535,1188,740
1540,1188,741
1545,1187,742
1550,1187,735
1555,1188,737
1560,1188,744
1565,1193,745
1570,1190,746
1575,1180,748
1580,1188,743
1585,1180,745
1590,1182,747
1595,1177,746
1600,1170,752
1605,1157,752
1610,1173,757
1615,1157,754
1620,1149,755
1625,1153,756
1630,1152,761
1635,1146,767
1640,1138,766
1645,1138,769
1650,1139,771
1655,1128,776
1660,1134,777
1665,1133,780
1670,1124,784
1675,1116,788
1680,1113,790
1685,1108,793
1690,1099,798
1695,1108,796
1700,1109,799
1705,1109,807
1710,1106,812
1715,1093,814
1720,1100,816
1725,1087,818
1730,1093,817
1735,1088,822
1740,1087,825
1745,1087,832
1750,1086,825
1755,1073,832
1760,1079,838
1765,1078,832
1770,1073,842
1775,1068,840
1780,1062,845
1785,1059,832
1790,1056,843
1795,1046,842
1800,1045,839
1805,1039,845
1810,1039,840
1815,1031,845
1820,1016,838
1825,1024,842
1830,1011,839
1835,1011,846
1840,987,847
1845,988,851
1850,982,841
1855,970,841
1860,966,839
1865,948,840
1870,946,840
1875,926,838
1880,922,840
1885,909,833
1890,903,838
1895,887,833
1900,888,837
1905,871,834
1910,864,833
1915,850,835
1920,844,834
1925,836,830
1930,821,830
1935,820,820
1940,811,820
1945,803,827
1950,797,826
1955,786,820
1960,786,829
1965,775,823
1970,772,825
1975,759,825
1980,749,819
1985,750,822
1990,752,821
1995,754,818
2000,745,820
2005,753,822
2009,748,820
2015,749,826
2020,760,818
2025,758,818
2029,752,827
2035,763,818
2040,756,815
2045,774,814
2050,775,816
2055,788,811
2060,802,812
2065,799,811
2070,816,810
2075,818,809
2080,827,804
2085,857,802
2090,861,803
2095,861,801
2100,879,805
2105,886,801
2110,905,791
2115,913,796
2120,931,793
2125,942,791
2130,958,790
2135,972,790
2140,983,788
2145,1001,785
2150,1013,786
2155,1025,778
2160,1038,777
2165,1049,775
2170,1059,766
2175,1072,770
2180,1084,768
2185,1089,763
2190,1105,762
2195,1116,760
2200,1129,758
2205,1134,759
2210,1134,751
2215,1148,752
2220,1152,753
2225,1159,750
2230,1161,745
2235,1180,746
2240,1172,751
2245,1177,747
2250,1184,736
2255,1183,740
2260,1184,739
2265,1185,740
2270,1191,740
2275,1195,736
2280,1189,744
2285,1183,738
2290,1187,742
2295,1186,741
2300,1184,739
2305,1188,749
2310,1180,749
2315,1176,751
2320,1175,743
2325,1176,749
2330,1163,753
2335,1158,756
2340,1154,762
2345,1156,757
2350,1154,760
2355,1146,763
2360,1149,769
2365,1140,764
2370,1133,777
2375,1131,778
2380,1127,776
2385,1126,780
2390,1128,789
2395,1117,789
2400,1110,792
2405,1112,794
2410,1100,798
2415,1106,800
2420,1113,802
2425,1108,805
2430,1101,811
2435,1101,820
2440,1107,809
2445,1099,818
2450,1084,822
2455,1093,818
2460,1083,832
2465,1082,830
2470,1077,834
2475,1079,832
2480,1074,832
2485,1067,833
2490,1064,834
2495,1058,832
2500,1067,839
2505,1058,842
2510,1047,842
2515,1061,841
2520,1046,838
2525,1040,843
2530,1040,844
2535,1032,847
2540,1025,844
2545,1014,847
2550,1008,847
2555,995,842
2560,998,845
2565,984,837
2570,979,842
2575,972,841
2580,962,844
2585,954,844
2590,939,842
2595,934,840
2600,923,834
2605,908,840
2610,898,837
2615,899,833
2620,880,842
2625,877,834
2630,864,832
2635,854,830
2640,851,827
2645,838,827
2650,827,832
2655,821,830
2660,806,830
2665,801,824
2670,792,828
2675,790,826
2680,776,825
2685,774,821
2690,773,826
2695,769,823
2700,762,824
2705,751,821
2710,751,822
2715,755,817
2720,747,819
2725,747,817
2730,745,822
2735,755,816
2740,751,821
2745,757,823
2750,758,813
2755,770,815
2760,761,815
2765,771,816
2770,783,817
2775,785,810
2780,785,816
2785,793,812
2790,814,811
2795,815,805
2800,830,809
2805,828,807
2810,845,812
2815,859,801
2820,878,804
2825,887,799
2830,898,798
2835,920,794
2840,935,793
2845,936,797
2850,959,790
2855,965,779
2860,977,781
2865,1003,783
2870,1010,780
2875,1026,775
2880,1034,780
2885,1047,776
2890,1060,774
2895,1064,769
2900,1084,767
2905,1094,764
2910,1111,765
2915,1113,762
2920,1112,758
2925,1131,752
2930,1137,752
2935,1150,751
2940,1147,754
2945,1160,753
2950,1165,744
2955,1169,749
2960,1178,748
2965,1174,748
2970,1176,738
2975,1189,744
2980,1191,741
2985,1188,742
2990,1185,739
2995,1194,746
3000,1192,739
3005,1190,737
3010,1188,739
3015,1189,740
3020,1184,744
3025,1176,744
3030,1180,746
3035,1180,749
3040,1173,748
3045,1171,746
3050,1168,748
3055,1164,748
3060,1173,754
3065,1150,760
3070,1151,764
3075,1157,758
3080,1131,768
3085,1145,767
3090,1146,771
3095,1130,775
3100,1133,774
3105,1125,778
3110,1119,779
3115,1121,784
3120,1125,789
3125,1115,794
3130,1103,794
3135,1111,797
3140,1107,800
3145,1116,802
3150,1094,807
3155,1102,811
3160,1094,817
3165,1096,816
3170,1089,821
3175,1086,820
3180,1084,828
3185,1076,828
3190,1078,830
3195,1074,827
3200,1078,830
3205,1075,832
3210,1071,835
3215,1062,834
3220,1061,834
3225,1061,839
3230,1050,840
3235,1054,845
3240,1048,840
3245,1039,849
3250,1034,851
3255,1038,851
3260,1029,843
3265,1015,842
3270,1017,842
3275,998,843
3280,994,839
3285,988,846
3290,973,842
3295,976,840
3300,977,838
3305,947,843
3310,950,841
3315,931,841
3320,937,836
3325,918,836
3330,908,835
3335,897,832
3340,891,828
3345,882,836
3350,869,832
3355,858,835
3360,848,834
3365,843,834
3370,828,827
3375,829,830
3380,811,828
3385,798,821
3390,786,828
3395,783,824
3400,789,824
3405,773,822
3410,769,828
3415,770,824
3420,760,824
3425,755,826
3430,758,822
3435,758,817
3440,749,828
3445,743,818
3450,743,819
3455,750,819
3460,750,818
3465,748,823
3470,748,819
3475,760,818
3480,766,813
3485,773,816
3490,780,814
3495,778,815
3500,790,810
3505,792,808
3510,800,810
3515,825,810
3520,825,803
3525,834,801
3530,847,803
3535,855,802
3540,874,794
3545,895,801
3550,893,798
3555,914,796
3560,920,799
3565,939,792
3570,954,792
3575,963,791
3580,980,788
3585,986,787
3590,1003,780
3595,1014,782
3600,1032,776
3605,1045,770
3610,1056,774
3615,1070,772
3620,1080,766
3625,1096,764
3630,1105,766
3635,1117,764
3640,1120,762
3645,1128,754
3650,1135,757
3655,1142,752
3660,1150,749
3665,1149,747
3670,1168,749
3675,1172,738
3680,1169,745
3685,1166,746
3690,1187,743
3695,1185,740
3700,1195,742
3705,1184,742
3710,1188,737
3715,1190,743
3720,1189,744
3725,1188,739
3730,1187,742
3735,1180,741
3740,1187,746
3745,1184,746
3750,1175,743
3755,1185,742
3760,1174,749
3765,1166,749
3770,1172,754
3775,1161,748
3780,1162,749
3785,1157,754
3790,1153,753
3795,1147,758
3800,1148,769
3805,1148,771
3810,1142,780
3815,1137,779
3820,1130,776
3825,1134,783
3830,1131,779
3835,1120,786
3840,1113,791
3845,1105,792
3850,1115,798
3855,1103,798
3860,1103,799
3865,1107,807
3870,1112,806
3875,1095,814
3880,1093,811
3885,1090,816
3890,1097,815
3895,1092,825
3900,1084,826
3905,1085,827
3910,1081,830
3915,1074,829
3920,1070,833
3925,1071,832
3930,1074,831
3935,1073,842
3940,1064,837
3945,1062,835
3950,1059,841
3955,1058,843
3960,1049,844
3965,1042,840
3970,1039,844
3975,1042,843
3980,1023,837
3985,1031,839
3990,1018,841
3995,997,845
4000,995,843
4005,995,847
4010,983,837
4014,973,843
4019,958,843
4025,960,838
4030,954,843
4035,935,841
4040,930,835
4045,922,837
4050,919,836
4054,902,837
4059,885,832
4065,876,837
4070,863,829
4075,861,836
4080,857,832
4085,840,829
4090,842,832
4094,835,828
4100,809,829
4105,814,826
4110,804,824
4115,792,821
4120,791,824
4125,770,820
4130,772,820
4135,762,819
4140,756,818
4145,752,823
4150,751,820
4155,751,817
4160,744,819
4165,743,821
4170,751,824
4175,752,818
4180,753,817
4185,748,822
4190,747,817
4195,763,814
4200,761,817
4205,764,816
4210,772,817
4215,784,817
4220,779,812
4225,805,803
4230,800,809
4235,821,806
4240,824,807
4245,836,804
4250,850,803
4255,854,799
4260,863,802
4265,879,801
4270,903,796
4275,905,791
4280,923,796
4285,937,798
4290,951,792
4295,959,786
4300,967,785
4305,982,781
4310,1002,785
4315,1002,773
4320,1031,779
4325,1042,771
4330,1057,777
4335,1054,771
4340,1072,774
4345,1093,770
4350,1096,766
4355,1107,763
4360,1123,756
4365,1128,760
4370,1131,753
4375,1148,756
4380,1158,752
4385,1151,748
4390,1161,755
4395,1170,744
4400,1174,748
4405,1164,744
4410,1186,749
4415,1174,744
4420,1186,739
4425,1179,742
4430,1191,742
4435,1184,742
4440,1195,745
4445,1185,743
4450,1185,740
4455,1183,743
4460,1187,736
4465,1183,745
4470,1182,751
4475,1176,742
4480,1172,748
4485,1173,747
4490,1163,753
4495,1160,756
4500,1154,757
4505,1158,759
4510,1154,759
4515,1147,764
4520,1142,766
4525,1142,770
4530,1140,765
4535,1142,773
4540,1140,776
4545,1133,775
4550,1123,784
4555,1126,790
4560,1122,787
4565,1113,793
4570,1112,797
4575,1098,794
4580,1097,802
4585,1105,804
4590,1110,807
4595,1094,810
4600,1098,808
4605,1090,818
4610,1093,824
4615,1090,818
4620,1087,821
4625,1097,830
4630,1079,829
4635,1085,823
4640,1076,828
4645,1074,833
4650,1072,837
4655,1070,838
4660,1064,836
4665,1073,834
4670,1057,846
4675,1070,837
4680,1048,840
4685,1037,843
4690,1038,840
4695,1031,840
4700,1033,843
4705,1022,847
4710,1013,843
4715,1004,842
4720,996,844
4725,997,843
4730,983,839
4735,980,839
4740,964,841
4745,956,845
4750,945,837
4755,945,836
4760,934,842
4765,922,837
4770,912,842
4775,895,837
4780,886,838
4785,885,834
4790,876,831
4795,863,832
4800,856,832
4805,846,832
4810,837,840
4815,823,823
4820,821,828
4825,805,825
4830,805,827
4835,789,826
4840,782,822
4845,780,831
4850,769,828
4855,774,823
4860,751,822
4865,766,820
4870,740,823
4875,749,822
4880,744,821
4885,744,822
4890,746,816
4895,746,817
4900,748,823
4905,750,820
4910,746,821
4915,754,811
4920,756,820
4925,763,815
4930,777,811
4935,778,817
4940,785,808
4945,801,812
4950,804,811
4955,817,812
4960,824,807
4965,833,807
4970,846,805
4975,858,808
4980,873,800
4985,875,802
4990,896,801
4995,910,791
5000,919,801
5005,929,792
5010,939,789
5015,954,790
5020,977,790
5025,991,782
5030,1002,781
5035,1016,784
5040,1027,786
5045,1041,771
5050,1050,771
5055,1061,770
5060,1077,768
5065,1094,765
5070,1097,765
5075,1104,763
5080,1115,759
5085,1127,760
5090,1142,757
5095,1141,761
5100,1146,747
5105,1159,751
5110,1172,752
5115,1169,749
5120,1179,742
5125,1173,742
5130,1183,741
5135,1186,745
5140,1185,744
5145,1188,743
5150,1185,742
5155,1178,734
5160,1185,740
5165,1192,736
5170,1186,746
5175,1194,737
5180,1181,742
5185,1176,745
5190,1174,749
5195,1179,748
5200,1175,744
5205,1156,749
5210,1167,749
5215,1170,752
5220,1157,756
5225,1162,752
5230,1153,763
5235,1142,765
5240,1147,768
5245,1139,768
5250,1133,776
5255,1136,778
5260,1131,773
5265,1134,780
5270,1120,786
5275,1127,786
5280,1118,788
5285,1120,787
5290,1102,796
5295,1106,795
5300,1110,804
5305,1097,806
5310,1100,808
5315,1097,803
5320,1092,812
5325,1097,813
5330,1096,808
5335,1092,824
5340,1094,823
5345,1079,827
5350,1083,825
5355,1072,832
5360,1087,833
5365,1078,833
5370,1083,835
5375,1068,842
5380,1073,838
5385,1071,838
5390,1067,840
5395,1051,843
5400,1055,838
5405,1043,845
5410,1041,848
5415,1029,842
5420,1026,839
5425,1017,843
5430,1009,840
5435,1010,845
5440,1006,840
5445,994,841
5450,986,844
5455,981,840
5460,970,840
5465,966,840
5470,951,846
5475,940,840
5480,941,834
5485,931,840
5490,906,836
5495,905,836
5500,895,834
5505,883,836
5510,872,832
5515,866,832
5520,848,837
5525,847,832
5530,827,834
5535,830,826
5540,817,837
5545,801,831
5550,800,831
5555,799,827
5560,792,822
5565,780,827
5570,774,824
5575,763,825
5580,756,824
5585,761,828
5590,758,822
5595,742,819
5600,748,822
5605,744,822
5610,748,819
5615,741,814
5620,750,822
5625,755,819
5630,753,819
5635,757,817
5640,760,821
5645,762,817
5650,758,814
5655,782,815
5660,785,817
5665,796,807
5670,795,810
5675,810,811
5680,819,801
5685,830,807
5690,836,803
5695,855,803
5700,874,803
5705,879,800
5710,883,801
5715,907,798
5720,920,793
5725,932,796
5730,949,792
5735,955,791
5740,975,789
5745,974,786
5750,993,783
5755,1020,781
5760,1030,779
5765,1039,776
5770,1052,775
5775,1066,775
5780,1069,772
5785,1086,767
5790,1097,770
5795,1113,763
5800,1110,760
5805,1124,756
5810,1132,753
5815,1134,756
5820,1147,756
5825,1159,749
5830,1164,755
5835,1173,747
5840,1165,743
5845,1183,744
5850,1174,741
5855,1174,742
5860,1186,741
5865,1186,743
5870,1178,741
5875,1189,741
5880,1188,745
5885,1184,744
5890,1187,739
5895,1182,745
5900,1180,743
5905,1184,743
5910,1179,743
5915,1176,739
5920,1168,749
5925,1178,744
5930,1167,751
5935,1168,754
5940,1166,756
5945,1164,754
5950,1159,760
5955,1145,762
5960,1139,768
5965,1148,766
5970,1144,770
5975,1137,776
5980,1135,772
5985,1128,777
5990,1127,780
5995,1122,784
6000,1119,793
6005,1117,793
6010,1113,790
6015,1115,798
6020,1110,798
6025,1105,804
6030,1103,810
6035,1100,807
6040,1099,809
6045,1091,814
6050,1095,815
6055,1091,818
6060,1089,824
6065,1098,822
6070,1084,823
6075,1083,831
6080,1084,836
6085,1062,828
6090,1075,833
6095,1072,839
6100,1075,837
6105,1060,840
6110,1056,839
6115,1057,843
6120,1055,839
6125,1043,840
6130,1036,845
6135,1039,842
6140,1023,846
6145,1023,841
6150,1017,845
6155,1015,841
6160,1004,840
6165,997,846
6170,984,845
6175,989,840
6180,969,845
6185,963,843
6190,946,840
6195,940,841
6200,934,843
6205,919,838
6210,906,836
6215,900,834
6220,895,833
6225,885,832
6230,876,832
6235,865,832
6240,860,828
6245,849,833
6250,846,829
6255,817,831
6260,811,835
6265,799,829
6270,795,825
6275,800,829
6280,790,824
6285,785,828
6290,778,824
6295,766,825
6300,765,816
6305,755,828
6310,755,818
6315,745,826
6320,750,823
6325,750,817
6330,749,819
6335,751,818
6340,754,814
6345,739,817
6350,748,811
6355,755,816
6360,757,816
6365,775,818
6370,773,813
6375,769,811
6380,777,812
6385,786,814
6390,804,808
6395,813,813
6400,831,810
6405,831,812
6410,844,807
6415,846,802
6420,858,801
6425,869,800
6430,884,797
6435,902,795
6440,916,797
6445,932,790
6450,939,793
6455,959,790
6460,966,790
6465,987,782
6470,997,783
6475,1004,784
6480,1020,776
6485,1038,775
6490,1047,775
6495,1052,772
6500,1074,771
6505,1080,763
6510,1090,763
6515,1101,763
6520,1112,759
6525,1123,756
6530,1133,759
6535,1138,757
6540,1141,751
6545,1149,751
6550,1156,748
6555,1159,748
6560,1162,742
6565,1178,745
6570,1177,743
6575,1187,750
6580,1182,747
6585,1184,745
6590,1185,741
6595,1190,743
6600,1189,741
6605,1186,742
6610,1184,742
6615,1183,748
6620,1185,743
6625,1186,744
6630,1178,747
6635,1174,742
6640,1180,744
6645,1174,753
6650,1167,746
6655,1158,750
6660,1163,756
6665,1160,752
6670,1146,754
6675,1145,763
6680,1143,766
6685,1140,769
6690,1134,773
6695,1132,771
6700,1137,772
6705,1125,780
6710,1117,785
6715,1121,786
6720,1108,791
6725,1110,792
6730,1115,793
6735,1114,802
6740,1113,798
6745,1110,808
6750,1098,804
6755,1101,811
6760,1106,810
6765,1090,816
6770,1105,814
6775,1086,819
6780,1089,822
6785,1090,825
6790,1089,834
6795,1079,828
6800,1083,835
6805,1074,833
6810,1073,838
6815,1057,829
6820,1061,839
6825,1062,837
6830,1053,839
6835,1055,844
6840,1048,844
6845,1040,837
6850,1036,843
6855,1036,846
6860,1029,838
6865,1025,845
6870,1015,840
6875,1016,849
6880,994,836
6885,995,848
6890,988,846
6895,981,839
6900,977,837
6905,963,833
6910,944,845
6915,947,839
6920,937,842
6925,931,836
6930,916,839
6935,906,836
6940,898,834
6945,893,835
6950,884,837
6955,873,829
6960,863,830
6965,844,833
6970,848,832
6975,830,832
6980,834,831
6985,814,829
6990,805,831
6995,794,829
7000,785,827
7005,780,822
7010,777,826
7015,769,827
7020,762,824
7025,757,820
7030,754,823
7035,751,822
7040,755,818
7045,754,823
7050,742,821
7055,753,823
7060,755,821
7065,742,809
7070,754,822
7075,749,819
7080,769,818
7085,768,813
7090,775,811
7095,778,815
7100,780,815
7105,788,811
7110,794,812
7115,816,809
7120,821,813
7125,821,805
7130,844,806
7135,850,800
7140,861,809
7145,870,803
7150,879,799
7155,907,796
7160,915,799
7165,918,797
7170,930,795
7175,956,794
7180,963,790
7185,980,786
7190,986,780
7195,1005,784
7200,1015,779
7205,1036,779
7210,1048,779
7215,1051,769
7220,1070,772
7225,1083,771
7230,1090,765
7235,1105,767
7240,1109,760
7245,1120,759
7250,1128,754
7255,1136,754
7260,1144,752
7265,1156,754
7270,1158,747
7275,1165,747
7280,1169,743
7285,1170,743
7290,1174,750
7295,1180,744
7300,1188,742
7305,1187,745
7310,1189,743
7315,1194,737
7320,1190,744
7325,1191,744
7330,1185,743
7335,1190,741
7340,1190,742
7345,1175,743
7350,1178,746
7355,1178,747
7360,1169,746
7365,1171,747
7370,1165,750
7375,1167,754
7380,1153,756
7385,1156,757
7390,1156,755
7395,1155,759
7400,1146,759
7405,1150,769
7410,1129,766
7415,1133,775
7420,1138,776
7425,1140,777
7430,1146,778
7435,1116,787
7440,1121,783
7445,1119,789
7450,1110,792
7455,1117,795
7460,1100,803
7465,1103,804
7470,1108,810
7475,1110,810
7480,1101,816
7485,1096,814
7490,1096,818
7495,1092,819
7500,1084,821
7505,1086,824
7510,1085,829
7515,1087,823
7520,1085,830
7525,1073,830
7530,1072,830
7535,1059,838
7540,1062,833
7545,1066,836
7550,1060,834
7555,1062,840
7560,1049,836
7565,1050,842
7570,1043,839
7575,1033,845
7580,1032,840
7585,1020,844
7590,1020,845
7595,1017,843
7600,1009,846
7605,999,844
7610,991,845
7615,975,844
7620,981,843
7625,970,841
7630,955,844
7635,947,840
7640,935,837
7645,924,835
7650,917,840
7655,914,833
7660,903,835
7665,892,836
7670,882,834
7675,870,836
7680,862,829
7685,853,834
7690,844,834
7695,830,832
7700,826,826
7705,815,824
7710,809,824
7715,804,826
7720,787,826
7725,778,831
7730,786,821
7735,773,830
7740,758,824
7745,760,824
7750,765,820
7755,757,817
7760,751,823
7765,745,819
7770,751,824
7775,755,819
7780,740,820
7785,748,820
7790,744,816
7795,761,823
7800,742,816
7805,761,818
7810,765,815
7815,776,814
7820,781,813
7825,787,812
7830,800,807
7835,794,814
7840,813,803
7845,828,809
7850,854,809
7855,853,806
7860,861,806
7865,870,799
7870,882,802
7875,902,801
7880,904,799
7885,923,798
7890,941,791
7895,948,787
7900,964,791
7905,975,784
7910,988,790
7915,1003,783
7920,1024,778
7925,1031,783
7930,1045,778
7935,1057,777
7940,1067,770
7945,1080,770
7950,1088,766
7955,1095,767
7960,1096,762
7965,1123,767
7970,1138,767
7975,1138,752
7980,1142,755
7985,1143,753
7990,1158,754
7995,1164,747
8000,1181,748
8005,1186,748
8010,1176,741
8015,1182,743
8020,1184,746
8025,1185,743
8029,1187,738
8035,1195,742
8039,1184,739
8045,1190,741
8050,1177,748
8055,1184,746
8060,1196,738
8064,1181,747
8070,1178,744
8074,1179,743
8080,1177,747
8085,1174,751
8090,1174,749
8095,1164,749
8100,1164,749
8105,1162,752
8109,1162,753
8115,1155,757
8119,1152,760
8125,1143,760
8130,1141,766
8135,1134,776
8140,1136,771
8145,1131,776
8150,1130,782
8154,1124,779
8160,1117,785
8164,1118,787
8170,1116,786
8175,1113,794
8180,1120,802
8185,1101,800
8189,1109,806
8195,1104,808
8200,1097,811
8205,1104,811
8210,1090,812
8215,1091,816
8220,1104,824
8225,1086,820
8230,1083,827
8235,1070,831
8240,1078,833
8245,1074,830
8250,1072,830
8255,1069,838
8260,1063,835
8265,1069,834
8270,1052,838
8275,1058,840
8280,1054,841
8285,1040,842
8290,1050,842
8295,1031,846
8300,1034,842
8305,1031,837
8310,1024,842
8315,1019,844
8320,1015,843
8325,1012,847
8330,999,842
8335,991,848
8340,967,841
8345,966,841
8350,957,840
8355,945,839
8360,948,836
8365,931,836
8370,929,840
8375,913,836
8380,898,834
8385,888,838
8390,872,828
8395,868,836
8400,862,839
8405,856,828
8410,845,833
8415,825,824
8420,829,826
8425,810,827
8430,804,826
8435,791,828
8440,792,825
8445,779,822
8450,773,827
8455,778,825
8460,763,820
8465,769,821
8470,750,822
8475,760,821
8480,745,817
8485,744,823
8490,750,823
8495,753,817
8500,750,818
8505,746,816
8510,748,820
8515,750,809
8520,763,814
8525,761,821
8530,764,814
8535,767,817
8540,783,821
8545,785,812
8550,800,808
8555,814,811
8560,815,815
8565,824,805
8570,840,806
8575,843,804
8580,858,805
8585,870,802
8590,887,794
8595,898,796
8600,906,797
8605,914,804
8610,934,795
8615,946,791
8620,959,789
8625,980,789
8630,996,785
8635,1002,782
8640,1011,788
8645,1026,779
8650,1042,776
8655,1046,770
8660,1064,771
8665,1079,769
8670,1091,765
8675,1093,760
8680,1107,764
8685,1114,763
8690,1128,759
8695,1136,750
8700,1138,757
8705,1152,755
8710,1157,754
8715,1163,754
8720,1171,747
8725,1175,749
8730,1173,743
8735,1175,744
8740,1180,740
8745,1174,740
8750,1188,746
8755,1178,742
8760,1187,735
8765,1180,746
8770,1183,742
8775,1188,742
8780,1185,734
8785,1187,737
8790,1185,750
8795,1182,746
8800,1175,750
8805,1163,747
8810,1166,748
8815,1167,753
8820,1170,749
8825,1166,753
8830,1156,747
8835,1155,763
8840,1142,760
8845,1152,761
8850,1142,768
8855,1139,770
8860,1137,774
8865,1132,772
8870,1132,785
8875,1128,781
8880,1116,790
8885,1120,797
8890,1117,786
8895,1116,794
8900,1106,800
8905,1115,799
8910,1104,803
8915,1104,811
8920,1096,807
8925,1098,809
8930,1098,812
8935,1099,815
8940,1089,819
8945,1087,824
8950,1082,827
8955,1077,828
8960,1085,831
8965,1084,833
8970,1082,831
8975,1078,833
8980,1066,834
8985,1062,839
8990,1060,838
8995,1050,843
9000,1049,838
9005,1038,844
9010,1037,834
9015,1032,841
9020,1036,838
9025,1025,843
9030,1010,841
9035,1008,839
9040,1006,843
9045,998,841
9050,989,843
9055,976,845
9060,977,841
9065,974,840
9070,957,841
9075,949,835
9080,944,839
9085,930,835
9090,920,836
9095,922,834
9100,909,837
9105,891,834
9110,884,831
9115,873,832
9120,868,835
9125,856,829
9130,849,829
9135,828,833
9140,821,826
9145,812,827
9150,819,828
9155,796,828
9160,786,822
9165,780,829
9170,781,828
9175,771,819
9180,768,831
9185,763,829
9190,765,821
9195,747,823
9200,758,822
9205,747,813
9210,751,821
9215,748,822
9220,747,823
9225,745,819
9230,752,816
9235,745,821
9240,761,817
9245,763,817
9250,768,816
9255,774,811
9260,786,807
9265,788,817
9270,793,808
9275,796,813
9280,816,807
9285,823,809
9290,837,810
9295,842,809
9300,847,807
9305,864,802
9310,888,803
9315,894,795
9320,894,802
9325,915,792
9330,935,796
9335,943,791
9340,960,786
9345,968,792
9350,993,786
9355,1006,783
9360,1019,779
9365,1024,777
9370,1033,774
9375,1051,774
9380,1072,772
9385,1071,778
9390,1079,768
9395,1094,764
9400,1109,760
9405,1114,763
9410,1120,754
9415,1131,756
9420,1137,755
9425,1146,753
9430,1155,747
9435,1155,747
9440,1163,742
9445,1179,742
9450,1180,743
9455,1182,749
9460,1181,742
9465,1185,745
9470,1184,740
9475,1183,739
9480,1192,745
9485,1193,740
9490,1193,744
9495,1195,741
9500,1187,749
9505,1189,739
9510,1177,740
9515,1183,745
9520,1176,746
9525,1181,749
9530,1167,742
9535,1169,744
9540,1166,757
9545,1160,757
9550,1165,757
9555,1162,765
9560,1154,764
9565,1142,764
9570,1147,765
9575,1143,767
9580,1141,773
9585,1135,770
9590,1132,779
9595,1134,784
9600,1129,787
9605,1127,790
9610,1120,793
9615,1115,796
9620,1110,800
9625,1109,799
9630,1114,801
9635,1097,807
9640,1095,811
9645,1103,810
9650,1093,817
9655,1099,812
9660,1087,820
9665,1083,824
9670,1084,826
9675,1087,834
9680,1073,831
9685,1075,832
9690,1076,833
9695,1081,838
9700,1073,839
9705,1065,835
9710,1054,842
9715,1067,839
9720,1061,839
9725,1053,843
9730,1035,840
9735,1040,840
9740,1032,842
9745,1026,842
9750,1021,842
9755,1015,847
9760,1015,842
9765,999,849
9770,1003,841
9775,983,844
9780,988,843
9785,973,839
9790,955,845
9795,943,835
9800,938,835
9805,932,839
9810,915,841
9815,906,837
9820,897,835
9825,887,830
9830,893,836
9835,879,833
9840,859,830
9845,859,834
9850,855,829
9855,839,825
9860,819,829
9865,824,830
9870,802,819
9875,807,831
9880,791,822
9885,790,829
9890,778,819
9895,783,822
9900,761,824
9905,765,824
9910,755,821
9915,752,829
9920,752,816
9925,751,816
9930,746,821
9935,757,814
9940,749,819
9945,750,817
9950,746,816
9955,749,818
9960,754,816
9965,764,816
9970,773,820
9975,771,812
9980,771,816
9985,784,813
9990,800,819
9995,807,805
10000,802,803
10005,814,801
10010,834,805
10015,833,807
10020,862,810
10025,874,802
10030,887,801
10035,896,801
10040,909,798
10045,908,799
10050,922,794
10055,935,796
10060,953,794
10065,974,793
10070,977,786
10075,995,788
10080,1013,784
10085,1026,776
10090,1020,775
10095,1044,772
10100,1056,772
10105,1070,774
10110,1081,772
10115,1097,764
10120,1109,762
10125,1113,760
10130,1120,759
10135,1132,758
10140,1137,754
10145,1138,749
10150,1161,751
10155,1160,750
10160,1162,752
10165,1169,747
10170,1171,748
10175,1173,743
10180,1172,742
10185,1177,743
10190,1184,739
10195,1190,742
10200,1192,739
10205,1186,741
10210,1187,741
10215,1186,740
10220,1192,744
10225,1187,742
10230,1185,744
10235,1189,750
10240,1177,750
10245,1176,743
10250,1172,751
10255,1170,746
10260,1178,750
10265,1157,755
10270,1162,759
10275,1155,761
10280,1147,758
10285,1143,763
10290,1151,761
10295,1138,762
10300,1138,769
10305,1133,782
10310,1137,779
10315,1132,786
10320,1128,778
10325,1123,784
10330,1111,793
10335,1113,788
10340,1120,799
10345,1112,800
10350,1111,802
10355,1099,808
10360,1105,808
10365,1095,810
10370,1091,812
10375,1093,814
10380,1095,821
10385,1091,822
10390,1088,826
10395,1089,827
10400,1082,830
10405,1076,831
10410,1068,829
10415,1070,833
10420,1069,833
10425,1073,838
10430,1052,842
10435,1059,837
10440,1061,837
10445,1044,845
10450,1039,840
10455,1036,844
10460,1042,844
10465,1027,843
10470,1018,846
10475,1023,841
10480,1017,842
10485,1000,849
10490,999,838
10495,985,839
10500,988,842
10505,970,840
10510,959,839
10515,953,834
10520,949,842
10525,929,842
10530,930,838
10535,920,835
10540,899,833
10545,901,834
10550,881,836
10555,885,831
10560,868,835
10565,866,832
10570,849,827
10575,844,834
10580,833,832
10585,815,831
10590,813,829
10595,807,828
10600,799,832
10605,789,825
10610,787,830
10615,774,826
10620,771,822
10625,770,821
10630,755,822
10635,754,823
10640,744,826
10645,752,824
10650,752,823
10655,755,821
10660,744,822
10665,749,820
10670,749,815
10675,757,813
10680,762,813
10685,767,820
10690,764,823
10695,767,811
10700,773,813
10705,782,816
10710,788,815
10715,808,806
10720,805,807
10725,814,814
10730,837,808
10735,841,811
10740,862,808
10745,856,805
10750,875,801
10755,883,801
10760,904,795
10765,922,794
10770,920,790
10775,946,791
10780,955,789
10785,974,794
10790,975,784
10795,996,788
10800,1013,778
10805,1018,776
10810,1035,778
10815,1048,776
10820,1056,773
10825,1061,765
10830,1078,773
10835,1099,764
10840,1098,763
10845,1109,764
10850,1121,765
10855,1130,754
10860,1135,754
10865,1147,755
10870,1160,749
10875,1152,750
10880,1162,751
10885,1172,745
10890,1170,743
10895,1172,746
10900,1183,743
10905,1189,742
10910,1188,742
10915,1185,737
10920,1192,741
10925,1192,740
10930,1192,737
10935,1180,743
10940,1180,743
10945,1178,745
10950,1175,742
10955,1181,744
10960,1184,747
10965,1173,749
10970,1169,747
10975,1175,745
10980,1162,754
10985,1165,760
10990,1164,757
10995,1150,755
11000,1144,762
11005,1149,764
11010,1145,766
11015,1134,771
11020,1136,770
11025,1145,769
11030,1135,775
11035,1131,778
11040,1113,786
11045,1119,790
11050,1125,790
11055,1122,792
11060,1107,795
11065,1115,800
11070,1111,801
11075,1102,805
11080,1109,806
11085,1092,813
11090,1093,815
11095,1104,814
11100,1094,821
11105,1087,823
11110,1085,827
11115,1083,828
11120,1082,824
11125,1077,833
11130,1082,828
11135,1073,837
11140,1072,833
11145,1074,838
11150,1061,842
11155,1060,844
11160,1068,840
11165,1052,843
11170,1050,842
11175,1044,845
11180,1031,838
11185,1024,845
11190,1028,843
11195,1025,842
11200,1022,844
11205,1008,841
11210,1000,837
11215,985,842
11220,971,846
11225,983,842
11230,973,842
11235,957,837
11240,947,837
11245,934,841
11250,924,839
11255,912,839
11260,907,837
11265,901,837
11270,886,839
11275,880,836
11280,869,835
11285,860,833
11290,850,834
11295,829,826
11300,835,828
11305,824,832
11310,817,830
11315,807,826
11320,804,827
11325,784,820
11330,779,831
11335,771,821
11340,773,823
11345,766,823
11350,758,825
11355,755,823
11360,753,824
11365,747,819
11370,751,827
11375,750,818
11380,748,820
11385,754,819
11390,751,814
11395,753,812
11400,756,817
11405,753,815
11410,769,817
11415,773,814
11420,778,815
11425,783,812
11430,793,809
11435,794,810
11440,796,803
11445,817,809
11450,823,804
11455,841,810
11460,841,804
11465,858,799
11470,876,803
11475,893,796
11480,903,801
11485,898,793
11490,936,790
11495,934,796
11500,950,788
11505,967,788
11510,975,788
11515,988,778
11520,1013,780
11525,1022,781
11530,1034,777
11535,1033,776
11540,1057,767
11545,1069,771
11550,1077,769
11555,1087,767
11560,1104,759
11565,1121,764
11570,1121,762
11575,1133,761
11580,1136,755
11585,1142,753
11590,1151,752
11595,1155,751
11600,1165,746
11605,1179,755
11610,1174,746
11615,1178,746
11620,1183,746
11625,1179,742
11630,1186,744
11635,1188,745
11640,1186,743
11645,1199,738
11650,1186,740
11655,1189,741
11660,1183,744
11665,1178,736
11670,1182,737
11675,1181,746
11680,1181,746
11685,1177,747
11690,1176,749
11695,1166,748
11700,1174,755
11705,1160,755
11710,1156,759
11715,1157,760
11720,1157,755
11725,1151,761
11730,1145,765
11735,1138,767
11740,1146,769
11745,1136,775
11750,1134,780
11755,1126,777
11760,1124,783
11765,1121,787
11770,1117,789
11775,1112,792
11780,1109,795
11785,1108,802
11790,1103,801
11795,1102,807
11800,1099,807
11805,1085,810
11810,1097,815
11815,1090,816
11820,1086,821
11825,1080,820
11830,1082,825
11835,1085,823
11840,1086,826
11845,1075,830
11850,1068,827
11855,1083,834
11860,1067,837
11865,1067,839
11870,1064,835
11875,1058,838
11880,1060,841
11885,1051,835
11890,1042,840
11895,1035,843
11900,1039,841
11905,1027,842
11910,1024,846
11915,1022,844
11920,1020,835
11925,1007,848
11930,1004,851
11935,989,844
11940,982,843
11945,980,838
11950,961,839
11955,959,839
11960,946,839
11965,942,841
11970,928,833
11975,919,836
11980,905,838
11985,896,839
11990,893,832
11995,884,832
12000,879,834
12005,860,833
12010,850,836
12015,836,832
12020,823,833
12025,813,834
12030,815,826
12035,813,824
12040,800,824
12045,788,825
12050,782,825
12055,771,827
12060,777,817
12065,770,821
12070,763,821
12075,753,825
12080,761,824
12085,756,824
12090,754,821
12095,747,819
12100,753,825
12105,749,814
12110,750,819
12115,745,819
12120,746,820
12125,756,815
12130,763,815
12135,772,817
12140,771,814
12145,785,812
12150,787,822
12155,800,809
12160,807,807
12165,820,815
12170,818,806
12175,829,807
12180,840,804
12185,853,803
12190,871,799
12195,882,800
12200,897,794
12205,916,793
12210,918,798
12215,934,794
12220,931,791
12225,955,785
12230,974,788
12235,998,782
12240,1010,785
12245,1013,780
12250,1026,775
12255,1039,781
12260,1053,772
12265,1063,773
12270,1074,764
12275,1088,768
12280,1103,764
12285,1106,757
12290,1112,762
12295,1138,757
12300,1134,755
12305,1142,755
12310,1154,756
12315,1164,752
12320,1159,746
12325,1165,748
12330,1174,746
12335,1181,748
12340,1185,748
12345,1176,745
12350,1179,739
12355,1186,743
12360,1192,742
12365,1195,735
12370,1187,737
12375,1186,741
12380,1198,745
12385,1180,745
12390,1184,738
12395,1182,751
12400,1179,751
12405,1181,744
12410,1170,744
12415,1172,754
12420,1175,751
12425,1163,757
12430,1159,757
12435,1165,757
12440,1147,762
12445,1147,761
12450,1151,762
12455,1143,768
12460,1135,771
12465,1137,775
12470,1136,777
12475,1131,782
12480,1126,781
12485,1124,785
12490,1111,787
12495,1110,791
12500,1117,794
12505,1112,800
12510,1108,802
12515,1108,802
12520,1105,809
12525,1097,814
12530,1096,814
12535,1094,817
12540,1098,816
12545,1086,826
12550,1081,822
12555,1092,830
12560,1086,825
12565,1082,833
12570,1077,827
12575,1080,834
12580,1066,830
12585,1060,835
12590,1063,838
12595,1060,836
12600,1060,846
12605,1052,839
12610,1047,836
12615,1036,846
12620,1050,842
12625,1041,850
12630,1027,846
12635,1014,844
12640,1005,841
12645,1006,844
12650,1004,841
12655,991,842
12660,981,839
12665,982,845
12670,972,845
12675,953,843
12680,959,842
12685,940,842
12690,934,836
12695,927,842
12700,910,834
12705,903,840
12710,890,836
12715,881,833
12720,867,829
12725,862,832
12730,854,833
12735,849,828
12740,831,830
12745,828,827
12750,812,828
12755,801,828
12760,809,828
12765,789,826
12770,791,823
12775,783,824
12780,766,820
12785,771,825
12790,762,819
12795,751,822
12800,754,824
12805,752,823
12810,745,823
12815,755,825
12820,751,822
12825,739,824
12830,759,818
12835,746,820
12840,754,818
12845,758,816
12850,763,814
12855,771,816
12860,784,814
12865,768,819
12870,792,809
12875,792,810
12880,796,821
12885,817,813
12890,826,808
12895,834,802
12900,839,795
12905,852,805
12910,863,799
12915,877,806
12920,889,796
12925,908,796
12930,914,795
12935,934,798
12940,945,794
12945,958,791
12950,974,792
12955,987,787
12960,1000,783
12965,1018,785
12970,1032,781
12975,1040,772
12980,1049,769
12985,1068,767
12990,1070,769
12995,1085,766
13000,1093,765
13005,1107,755
13010,1118,762
13015,1122,753
13020,1143,755
13025,1140,755
13030,1152,751
13035,1161,749
13040,1170,752
13045,1171,748
13050,1175,749
13055,1172,747
13060,1190,741
13065,1178,745
13070,1178,741
13075,1194,742
13080,1192,742
13085,1177,746
13090,1190,741
13095,1192,743
13100,1187,744
13105,1193,742
13110,1177,741
13115,1192,746
13120,1177,741
13125,1173,745
13130,1168,745
13135,1174,746
13140,1170,751
13145,1163,753
13150,1170,756
13155,1149,760
13160,1163,757
13165,1159,765
13170,1158,764
13175,1153,767
13180,1136,767
13185,1143,768
13190,1141,778
13195,1133,777
13200,1124,782
13205,1131,786
13210,1122,785
13215,1117,793
13220,1115,795
13225,1111,796
13230,1111,801
13235,1108,802
13240,1109,807
13245,1104,811
13250,1096,809
13255,1088,814
13260,1091,823
13265,1086,816
13270,1085,822
13275,1083,827
13280,1077,828
13285,1085,823
13290,1078,828
13295,1070,831
13300,1081,836
13305,1060,832
13310,1075,834
13315,1065,839
13320,1062,844
13325,1058,838
13330,1051,839
13335,1050,838
13340,1033,842
13345,1037,845
13350,1024,843
13355,1026,844
13360,1017,844
13365,1009,841
13370,1003,848
13375,996,847
13380,983,842
13385,976,842
13390,962,838
13395,957,843
13400,947,844
13405,943,841
13410,934,836
13415,917,836
13420,911,836
13425,903,835
13430,895,839
13435,887,840
13440,876,835
13445,862,836
13450,855,834
13455,847,836
13460,834,830
13465,837,832
13470,805,826
13475,807,830
13480,795,827
13485,793,822
13490,782,826
13495,788,827
13500,775,822
13505,769,816
13510,761,824
13515,754,825
13520,745,824
13525,749,814
13530,748,822
13535,750,821
13540,748,817
13545,740,812
13550,747,820
13555,749,818
13560,753,815
13565,750,817
13570,758,820
13575,761,816
13580,765,813
13585,773,812
13590,791,811
13595,794,813
13600,796,811
13605,807,810
13610,824,810
13615,837,810
13620,837,805
13625,852,809
13630,861,802
13635,886,800
13640,893,803
13645,900,806
13650,920,792
13655,928,796
13660,943,793
13665,952,792
13670,977,789
13675,983,785
13680,985,779
13685,1006,777
13690,1020,781
13695,1034,777
13700,1053,773
13705,1070,770
13710,1074,770
13715,1082,765
13720,1094,768
13725,1103,761
13730,1122,759
13735,1123,762
13740,1127,756
13745,1137,754
13750,1147,753
13755,1149,753
13760,1155,750
13765,1172,748
13770,1175,745
13775,1172,741
13780,1178,747
13785,1185,736
13790,1184,741
13795,1175,740
13800,1182,740
13805,1177,735
13810,1187,740
13815,1197,741
13820,1192,741
13825,1180,741
13830,1180,744
13835,1186,738
13840,1177,742
13845,1187,746
13850,1167,752
13855,1170,753
13860,1177,750
13865,1172,753
13870,1170,749
13875,1158,757
13880,1155,760
13885,1146,765
13890,1153,762
13895,1147,765
13900,1139,773
13905,1139,778
13910,1134,775
13915,1129,779
13920,1127,785
13925,1109,784
13930,1120,789
13935,1118,792
13940,1110,795
13945,1105,796
13950,1118,802
13955,1098,801
13960,1102,811
13965,1104,810
13970,1095,815
13975,1098,814
13980,1095,821
13985,1092,820
13990,1086,826
13995,1092,823
14000,1085,828
14005,1080,834
14010,1086,831
14015,1070,835
14020,1067,833
14025,1081,839
14030,1061,840
14035,1069,841
14040,1054,840
14045,1055,840
14050,1039,845
14055,1046,844
14060,1046,840
14065,1041,847
14070,1024,841
14075,1024,847
14080,1009,846
14085,1012,847
14090,1012,841
14095,991,843
14100,989,841
14105,979,842
14110,964,844
14115,959,839
14120,950,841
14125,944,835
14130,945,838
14135,915,839
14140,913,835
14145,905,841
14150,892,835
14155,896,833
14160,871,830
14165,871,833
14170,852,831
14175,845,834
14180,836,831
14185,830,831
14190,826,833
14195,807,832
14200,810,827
14205,788,823
14210,787,828
14215,777,827
14220,778,827
14225,768,822
14230,768,819
14235,766,826
14240,756,821
14245,748,825
14250,745,823
14255,746,817
14260,747,815
14265,749,819
14270,746,818
14275,750,808
14280,758,819
14285,758,817
14290,760,814
14295,764,820
14300,767,813
14305,774,811
14310,784,813
14315,796,811
14320,796,814
14325,800,810
14330,813,811
14335,830,811
14340,843,801
14345,859,808
14350,862,803
14355,874,806
14360,878,798
14365,904,796
14370,911,796
14375,936,797
14380,936,796
14385,952,792
14390,970,787
14395,990,785
14400,1000,789
14405,1019,777
14410,1021,780
14415,1032,777
14420,1042,774
14425,1058,771
14430,1069,772
14435,1083,765
14440,1091,770
14445,1110,764
14450,1124,758
14455,1123,760
14460,1127,757
14465,1147,757
14470,1148,750
14475,1147,750
14480,1158,745
14485,1165,744
14490,1170,745
14495,1171,749
14500,1181,744
14505,1177,742
14510,1192,745
14515,1184,747
14520,1192,744
14525,1185,738
14530,1185,742
14535,1182,743
14540,1195,745
14545,1195,744
14550,1182,742
14555,1186,737
14560,1175,740
14565,1184,744
14570,1178,745
14575,1168,747
14580,1180,748
14585,1162,754
14590,1155,750
14595,1155,751
14600,1167,761
14605,1149,758
14610,1155,766
14615,1146,769
14620,1145,766
14625,1134,765
14630,1146,773
14635,1134,782
14640,1128,783
14645,1117,786
14650,1124,791
14655,1109,784
14660,1118,794
14665,1109,795
14670,1108,795
14675,1112,807
14680,1108,807
14685,1101,811
14690,1092,808
14695,1088,812
14700,1089,817
14705,1094,817
14710,1096,818
14715,1097,827
14720,1096,826
14725,1081,834
14730,1082,836
14735,1080,830
14740,1077,838
14745,1067,837
14750,1064,836
14755,1062,841
14760,1066,833
14765,1055,840
14770,1054,846
14775,1046,844
14780,1046,843
14785,1038,845
14790,1030,845
14795,1021,845
14800,1020,843
14805,1014,846
14810,1003,845
14815,997,840
14820,999,840
14825,987,840
14830,968,839
14835,972,843
14840,953,840
14845,949,842
14850,932,836
14855,938,833
14860,914,835
14865,906,837
14870,897,832
14875,895,832
14880,876,836
14885,864,838
14890,851,831
14895,845,832
14900,842,835
14905,833,829
14910,830,827
14915,811,828
14920,811,828
14925,799,830
14930,792,825
14935,784,828
14940,772,826
14945,773,824
14950,769,823
14955,759,825
14960,758,825
14965,750,823
14970,750,822
14975,755,825
14980,749,820
14985,741,816
14990,751,822
14995,757,820
15000,756,821
15005,749,816
15010,754,818
15015,758,816
15020,772,813
15025,788,815
15030,779,815
15035,790,811
15040,806,813
15045,816,810
15050,816,812
15055,831,805
15060,836,805
15065,847,802
15070,863,806
15075,870,802
15080,881,799
15085,909,799
15090,912,789
15095,919,795
15100,927,794
15105,947,790
15110,967,786
15115,971,783
15120,1001,786
15125,1000,782
15130,1017,781
15135,1044,775
15140,1044,777
15145,1060,778
15150,1066,771
15155,1080,767
15160,1095,764
15165,1106,768
15170,1116,759
15175,1117,764
15180,1132,761
15185,1139,756
15190,1150,751
15195,1148,751
15200,1153,747
15205,1166,748
15210,1168,743
15215,1171,746
15220,1176,747
15225,1178,746
15230,1184,737
15235,1179,744
15240,1190,745
15245,1190,739
15250,1195,739
15255,1188,741
15260,1193,744
15265,1191,736
15270,1182,740
15275,1187,742
15280,1192,747
15285,1176,748
15290,1181,748
15295,1173,748
15300,1172,756
15305,1169,753
15310,1160,748
15315,1159,753
15320,1161,759
15325,1153,762
15330,1152,762
15335,1146,764
15340,1138,770
15345,1136,773
15350,1140,779
15355,1141,771
15360,1134,780
15365,1126,783
15370,1126,785
15375,1114,792
15380,1120,789
15385,1114,802
15390,1115,800
15395,1108,803
15400,1098,804
15405,1100,808
15410,1095,810
15415,1101,811
15420,1096,815
15425,1096,822
15430,1093,825
15435,1094,819
15440,1084,828
15445,1081,834
15450,1076,829
15455,1076,833
15460,1073,833
15465,1060,831
15470,1077,838
15475,1056,839
15480,1061,837
15485,1057,842
15490,1053,844
15495,1043,836
15500,1036,840
15505,1034,841
15510,1033,844
15515,1020,845
15520,1017,842
15525,1015,848
15530,996,845
15535,993,850
15540,994,844
15545,981,847
15550,966,832
15555,964,844
15560,959,842
15565,948,839
15570,936,837
15575,922,839
15580,920,837
15585,912,833
15590,904,842
15595,897,833
15600,879,835
15605,869,828
15610,856,831
15615,864,831
15620,845,826
15625,837,826
15630,815,828
15635,824,823
15640,810,826
15645,799,827
15650,791,828
15655,787,825
15660,783,817
15665,773,826
15670,773,823
15675,759,822
15680,767,823
15685,752,823
15690,744,821
15695,745,824
15700,746,820
15705,747,820
15710,750,817
15715,751,820
15720,743,815
15725,750,813
15730,759,818
15735,763,818
15740,771,813
15745,773,811
15750,774,817
15755,788,816
15760,797,806
15765,815,816
15770,823,811
15775,829,810
15780,829,800
15785,855,807
15790,857,801
15795,869,797
15800,878,798
15805,905,797
15810,911,797
15815,924,795
15820,936,791
15825,947,794
15830,971,784
15835,978,786
15840,988,787
15845,1001,779
15850,1003,782
15855,1033,782
15860,1043,778
15865,1056,774
15870,1063,765
15875,1074,768
15880,1090,765
15885,1097,764
15890,1117,760
15895,1123,757
15900,1119,759
15905,1129,752
15910,1142,754
15915,1157,749
15920,1160,751
15925,1162,749
15930,1168,744
15935,1176,740
15940,1177,743
15945,1178,742
15950,1181,742
15955,1187,743
15960,1183,738
15965,1185,741
15970,1191,746
15975,1183,739
15980,1191,743
15985,1179,743
15990,1187,737
15995,1183,741
16000,1189,744
16004,1178,743
16010,1182,745
16015,1171,750
16020,1176,748
16024,1169,746
16030,1166,754
16035,1161,753
16040,1157,761
16045,1148,761
16050,1148,763
16055,1148,768
16059,1138,771
16065,1139,772
16070,1131,777
16075,1126,780
16079,1124,774
16085,1123,783
16090,1126,788
16094,1118,786
16100,1106,790
16105,1108,792
16110,1112,802
16114,1114,794
16120,1103,808
16125,1097,810
16129,1103,810
16135,1087,815
16140,1089,819
16145,1089,823
16149,1095,820
16155,1089,821
16160,1075,830
16165,1080,826
16170,1079,826
16175,1079,830
16180,1060,831
16184,1066,838
16190,1060,836
16195,1061,840
16200,1063,839
16204,1051,839
16210,1056,839
16215,1047,841
16219,1052,842
16225,1039,837
16230,1035,844
16235,1024,845
16239,1020,845
16245,1026,836
16250,1014,843
16254,998,846
16260,990,845
16265,981,846
16270,976,838
16274,973,836
16280,960,845
16285,951,842
16290,941,843
16295,927,843
16300,921,839
16305,910,835
16309,906,834
16315,891,832
16320,885,832
16325,875,833
16329,871,835
16335,859,832
16340,842,836
16344,836,826
16350,825,829
16355,818,822
16360,806,832
16364,799,827
16370,797,824
16375,783,827
16379,778,818
16385,779,824
16390,772,827
16395,762,820
16400,753,821
16405,752,817
16410,757,822
16415,751,820
16420,746,815
16425,752,820
16430,749,821
16435,743,813
16440,754,821
16445,755,817
16450,756,815
16455,759,809
16460,765,815
16465,768,814
16470,780,810
16475,792,811
16480,800,809
16485,804,813
16490,819,809
16495,816,809
16500,834,805
16505,838,804
16510,849,806
16515,870,804
16520,886,802
16525,892,801
16530,903,794
16535,924,795
16540,936,790
16545,955,795
16550,962,791
16555,974,788
16560,999,789
16565,995,785
16570,1022,781
16575,1024,778
16580,1050,773
16585,1049,777
16590,1061,769
16595,1074,769
16600,1100,774
16605,1111,764
16610,1110,756
16615,1119,762
16620,1126,761
16625,1132,758
16630,1142,754
16635,1143,750
16640,1151,747
16645,1162,748
16650,1165,745
16655,1174,751
16660,1171,747
16665,1182,741
16670,1188,739
16675,1186,741
16680,1187,740
16685,1183,739
16690,1188,735
16695,1189,738
16700,1190,740
16705,1185,740
16710,1179,738
16715,1180,738
16720,1180,747
16725,1179,747
16730,1176,749
16735,1171,749
16740,1179,750
16745,1164,753
16750,1170,750
16755,1166,753
16760,1148,756
16765,1151,756
16770,1158,762
16775,1138,762
16780,1138,768
16785,1142,773
16790,1137,772
16795,1138,776
16800,1136,777
16805,1128,790
16810,1119,785
16815,1126,789
16820,1119,788
16825,1112,792
16830,1116,803
16835,1107,803
16840,1107,805
16845,1114,811
16850,1105,811
16855,1094,810
16860,1096,811
16865,1090,818
16870,1085,826
16875,1094,825
16880,1090,825
16885,1085,827
16890,1080,836
16895,1078,830
16900,1070,832
16905,1077,830
16910,1070,837
16915,1067,842
16920,1054,833
16925,1055,841
16930,1055,836
16935,1047,841
16940,1046,845
16945,1034,843
16950,1035,846
16955,1034,845
16960,1031,841
16965,1015,843
16970,1008,840
16975,1004,840
16980,996,842
16985,993,844
16990,985,844
16995,972,842
17000,966,847
17005,951,845
17010,947,843
17015,927,839
17020,921,839
17025,915,837
17030,902,833
17035,894,828
17040,881,835
17045,865,834
17050,875,828
17055,851,831
17060,850,831
17065,836,830
17070,834,833
17075,811,832
17080,813,830
17085,806,829
17090,782,832
17095,791,822
17100,775,826
17105,774,827
17110,769,822
17115,757,820
17120,751,824
17125,757,826
17130,753,821
17135,764,819
17140,743,821
17145,754,815
17150,750,818
17155,745,820
17160,747,823
17165,753,821
17170,750,820
17175,761,814
17180,764,814
17185,777,814
17190,776,814
17195,790,817
17200,802,813
17205,796,808
17210,807,810
17215,824,811
17220,829,810
17225,841,805
17230,858,805
17235,855,805
17240,881,798
17245,894,798
17250,899,802
17255,919,792
17260,938,790
17265,950,794
17270,954,792
17275,966,787
17280,968,785
17285,1001,787
17290,1011,785
17295,1027,776
17300,1037,775
17305,1054,774
17310,1071,771
17315,1078,767
17320,1088,766
17325,1093,763
17330,1096,762
17335,1114,761
17340,1127,754
17345,1133,757
17350,1138,754
17355,1151,750
17360,1145,752
17365,1158,750
17370,1173,745
17375,1170,745
17380,1176,746
17385,1180,746
17390,1178,741
17395,1185,746
17400,1190,736
17405,1186,737
17410,1189,738
17415,1189,733
17420,1181,742
17425,1196,746
17430,1187,743
17435,1191,739
17440,1183,743
17445,1180,743
17450,1178,744
17455,1182,749
17460,1174,753
17465,1176,753
17470,1168,755
17475,1166,755
17480,1166,750
17485,1159,762
17490,1144,761
17495,1144,761
17500,1146,762
17505,1135,764
17510,1130,774
17515,1140,775
17520,1130,781
17525,1128,778
17530,1116,785
17535,1114,788
17540,1125,789
17545,1100,797
17550,1122,798
17555,1111,800
17560,1096,800
17565,1099,803
17570,1106,817
17575,1102,813
17580,1096,816
17585,1093,820
17590,1090,822
17595,1080,820
17600,1090,819
17605,1090,827
17610,1091,831
17615,1080,836
17620,1073,832
17625,1074,837
17630,1074,839
17635,1057,837
17640,1061,840
17645,1053,842
17650,1053,838
17655,1053,838
17660,1054,842
17665,1048,844
17670,1040,843
17675,1025,843
17680,1019,845
17685,1023,843
17690,1003,841
17695,1002,847
17700,988,847
17705,982,843
17710,984,838
17715,970,843
17720,964,839
17725,959,836
17730,943,844
17735,945,833
17740,936,836
17745,907,835
17750,897,830
17755,893,840
17760,883,839
17765,874,838
17770,871,832
17775,854,832
17780,843,831
17785,843,832
17790,830,825
17795,817,826
17800,807,825
17805,800,820
17810,788,828
17815,777,830
17820,777,826
17825,774,822
17830,763,823
17835,759,820
17840,759,822
17845,757,820
17850,748,821
17855,755,827
17860,743,824
17865,749,819
17870,750,819
17875,751,820
17880,758,818
17885,750,821
17890,750,817
17895,755,815
17900,761,814
17905,782,810
17910,786,814
17915,779,813
17920,786,812
17925,800,808
17930,807,814
17935,824,803
17940,831,811
17945,836,801
17950,848,807
17955,871,804
17960,890,800
17965,885,805
17970,906,802
17975,911,800
17980,932,799
17985,951,788
17990,959,789
17995,966,790
18000,981,789
18005,998,782
18010,1018,782
18015,1010,780
18020,1036,771
18025,1050,768
18030,1063,770
18035,1074,765
18040,1070,766
18045,1089,764
18050,1095,765
18055,1113,763
18060,1120,756
18065,1131,758
18070,1136,754
18075,1140,743
18080,1146,747
18085,1156,749
18090,1160,750
18095,1169,740
18100,1184,742
18105,1175,741
18110,1175,740
18115,1180,744
18120,1186,738
18125,1192,743
18130,1189,739
18135,1191,736
18140,1191,744
18145,1191,740
18150,1181,741
18155,1183,737
18160,1188,742
18165,1183,750
18170,1177,747
18175,1193,744
18180,1179,748
18185,1167,749
18190,1167,749
18195,1165,755
18200,1151,758
18205,1161,756
18210,1156,764
18215,1149,766
18220,1136,759
18225,1134,775
18230,1137,775
18235,1130,777
18240,1137,780
18245,1130,785
18250,1125,787
18255,1119,786
18260,1117,793
18265,1126,799
18270,1114,799
18275,1102,797
18280,1112,807
18285,1097,803
18290,1106,812
18295,1091,812
18300,1101,813
18305,1087,820
18310,1094,821
18315,1085,819
18320,1090,825
18325,1088,823
18330,1084,826
18335,1080,826
18340,1080,833
18345,1069,835
18350,1074,837
18355,1067,839
18360,1062,839
18365,1060,839
18370,1052,844
18375,1055,844
18380,1040,839
18385,1038,841
18390,1039,845
18395,1031,844
18400,1020,839
18405,1024,846
18410,1009,841
18415,1006,843
18420,985,849
18425,986,845
18430,979,842
18435,973,841
18440,970,841
18445,955,842
18450,940,839
18455,938,841
18460,918,838
18465,914,837
18470,911,834
18475,894,835
18480,889,833
18485,877,830
18490,871,835
18495,861,832
18500,844,829
18505,835,832
18510,826,829
18515,819,832
18520,810,826
18525,803,829
18530,790,823
18535,789,823
18540,787,826
18545,766,824
18550,770,826
18555,758,820
18560,753,821
18565,757,822
18570,745,820
18575,753,824
18580,757,821
18585,744,822
18590,753,821
18595,740,823
18600,753,816
18605,755,818
18610,760,819
18615,758,816
18620,760,820
18625,771,816
18630,778,811
18635,785,813
18640,787,814
18645,806,811
18650,807,809
18655,821,804
18660,827,804
18665,839,810
18670,846,808
18675,857,808
18680,879,799
18685,882,801
18690,908,795
18695,916,797
18700,934,793
18705,934,795
18710,954,789
18715,966,791
18720,982,781
18725,1004,782
18730,1010,782
18735,1011,779
18740,1032,779
18745,1038,773
18750,1052,774
18755,1062,780
18760,1089,764
18765,1090,763
18770,1107,763
18775,1108,761
18780,1132,759
18785,1126,759
18790,1142,753
18795,1153,756
18800,1146,748
18805,1155,752
18810,1165,750
18815,1175,742
18820,1171,743
18825,1175,743
18830,1180,747
18835,1187,743
18840,1179,742
18845,1180,739
18850,1181,738
18855,1190,741
18860,1189,740
18865,1187,742
18870,1187,745
18875,1184,743
18880,1179,745
18885,1185,743
18890,1173,739
18895,1180,749
18900,1174,752
18905,1160,750
18910,1169,753
18915,1162,755
18920,1164,759
18925,1158,757
18930,1154,762
18935,1148,768
18940,1148,763
18945,1148,765
18950,1128,774
18955,1137,775
18960,1130,777
18965,1121,779
18970,1130,782
18975,1115,787
18980,1119,787
18985,1112,791
18990,1113,793
18995,1110,798
19000,1105,802
19005,1103,813
19010,1099,808
19015,1094,811
19020,1092,813
19025,1094,820
19030,1098,819
19035,1096,825
19040,1099,826
19045,1082,822
19050,1083,821
19055,1075,824
19060,1077,829
19065,1065,830
19070,1077,837
19075,1061,836
19080,1062,838
19085,1061,841
19090,1057,836
19095,1047,843
19100,1049,837
19105,1045,843
19110,1041,844
19115,1026,841
19120,1023,844
19125,1016,844
19130,1012,841
19135,1002,846
19140,1000,841
19145,997,843
19150,986,842
19155,975,843
19160,978,844
19165,959,839
19170,947,839
19175,939,833
19180,926,842
19185,916,835
19190,914,838
19195,902,839
19200,893,837
19205,877,830
19210,871,830
19215,862,830
19220,863,826
19225,835,824
19230,830,830
19235,826,830
19240,817,828
19245,807,822
19250,787,829
19255,790,830
19260,791,825
19265,776,827
19270,764,818
19275,763,824
19280,757,822
19285,751,824
19290,753,820
19295,745,823
19300,745,821
19305,744,815
19310,734,817
19315,746,816
19320,747,817
19325,752,821
19330,750,815
19335,753,821
19340,768,816
19345,772,815
19350,775,817
19355,786,810
19360,787,809
19365,793,816
19370,801,806
19375,817,810
19380,826,806
19385,841,814
19390,840,801
19395,861,800
19400,884,806
19405,895,803
19410,902,797
19415,917,800
19420,931,798
19425,930,795
19430,953,789
19435,963,791
19440,986,787
19445,986,781
19450,1005,781
19455,1023,782
19460,1041,781
19465,1046,777
19470,1058,769
19475,1066,768
19480,1079,767
19485,1090,768
19490,1090,765
19495,1111,762
19500,1124,756
19505,1129,755
19510,1135,755
19515,1149,761
19520,1147,757
19525,1147,751
19530,1160,749
19535,1170,745
19540,1172,745
19545,1176,749
19550,1181,740
19555,1183,743
19560,1188,742
19565,1186,743
19570,1190,739
19575,1192,738
19580,1187,737
19585,1183,742
19590,1192,743
19595,1181,738
19600,1189,741
19605,1178,747
19610,1178,742
19615,1178,747
19620,1169,748
19625,1167,752
19630,1172,756
19635,1166,753
19640,1164,756
19645,1151,752
19650,1147,757
19655,1148,762
19660,1150,764
19665,1140,764
19670,1140,767
19675,1130,773
19680,1142,775
19685,1127,779
19690,1122,789
19695,1118,790
19700,1113,795
19705,1116,790
19710,1116,794
19715,1106,798
19720,1112,800
19725,1103,810
19730,1105,808
19735,1098,819
19740,1095,816
19745,1097,820
19750,1092,813
19755,1091,824
19760,1080,826
19765,1084,820
19770,1080,827
19775,1083,831
19780,1079,827
19785,1076,833
19790,1066,835
19795,1064,836
19800,1064,833
19805,1068,834
19810,1060,843
19815,1047,840
19820,1043,842
19825,1043,844
19830,1035,846
19835,1024,844
19840,1024,849
19845,1022,843
19850,1008,849
19855,1003,842
19860,994,845
19865,993,847
19870,979,847
19875,979,836
19880,967,847
19885,956,837
19890,946,838
19895,937,845
19900,937,841
19905,918,835
19910,914,836
19915,906,830
19920,896,839
19925,879,834
19930,869,835
19935,858,834
19940,850,833
19945,849,827
19950,837,828
19955,822,827
19960,820,827
19965,806,828
19970,799,829
19975,796,825
19980,785,827
19985,779,821
19990,779,829
19995,762,822
20000,763,823
20005,754,822
20010,760,816
20015,747,824
20020,748,822
20025,747,820
20030,748,818
20035,746,820
20040,751,820
20045,754,818
20050,763,815
20055,748,816
20060,765,817
20065,769,816
20070,768,818
20075,777,808
20080,789,819
20085,801,809
20090,802,811
20095,810,810
20100,824,807
20105,838,802
20110,848,803
20115,859,807
20120,865,803
20125,878,800
20130,893,797
20135,910,801
20140,923,796
20145,926,794
20150,950,789
20155,962,786
20160,971,786
20165,983,788
20170,1003,774
20175,1008,778
20180,1031,781
20185,1039,778
20190,1047,778
20195,1067,774
20200,1071,769
20205,1092,768
20210,1095,765
20215,1101,761
20220,1115,754
20225,1128,758
20230,1136,752
20235,1147,752
20240,1147,747
20245,1160,753
20250,1168,754
20255,1161,749
20260,1167,742
20265,1179,748
20270,1189,742
20275,1182,743
20280,1178,739
20285,1190,737
20290,1178,745
20295,1187,742
20300,1190,744
20305,1186,740
20310,1189,745
20315,1176,747
20320,1185,744
20325,1182,746
20330,1180,748
20335,1174,744
20340,1171,748
20345,1180,746
20350,1172,751
20355,1164,756
20360,1157,757
20365,1161,757
20370,1148,760
20375,1149,766
20380,1138,763
20385,1147,770
20390,1147,773
20395,1131,779
20400,1131,773
20405,1131,783
20410,1123,777
20415,1105,789
20420,1122,787
20425,1111,792
20430,1097,798
20435,1110,799
20440,1107,802
20445,1111,807
20450,1108,804
20455,1103,810
20460,1094,814
20465,1106,817
20470,1088,818
20475,1089,820
20480,1088,826
20485,1084,826
20490,1083,834
20495,1078,824
20500,1075,833
20505,1066,835
20510,1070,836
20515,1061,836
20520,1064,831
20525,1063,846
20530,1049,840
20535,1052,840
20540,1044,837
20545,1044,840
20550,1041,848
20555,1045,838
20560,1025,843
20565,1018,846
20570,1026,842
20575,1010,844
20580,1000,841
20585,994,847
20590,985,839
20595,982,847
20600,971,841
20605,967,839
20610,946,834
20615,943,834
20620,937,839
20625,930,835
20630,913,838
20635,905,833
20640,890,835
20645,887,830
20650,876,829
20655,865,832
20660,848,838
20665,850,831
20670,831,830
20675,836,828
20680,824,834
20685,799,830
20690,795,831
20695,800,826
20700,788,828
20705,776,825
20710,773,827
20715,758,824
20720,761,826
20725,760,824
20730,749,822
20735,743,821
20740,754,820
20745,746,821
20750,761,818
20755,749,821
20760,742,818
20765,755,823
20770,753,814
20775,758,816
20780,754,820
20785,764,818
20790,770,818
20795,781,819
20800,787,814
20805,784,808
20810,799,807
20815,812,813
20820,822,805
20825,837,803
20830,839,805
20835,853,805
20840,865,801
20845,884,803
20850,899,800
20855,907,799
20860,916,788
20865,933,792
20870,954,790
20875,964,785
20880,966,785
20885,986,781
20890,1004,784
20895,1012,786
20900,1032,780
20905,1032,775
20910,1058,774
20915,1059,774
20920,1068,763
20925,1083,762
20930,1098,762
20935,1108,761
20940,1117,760
20945,1123,754
20950,1138,757
20955,1143,760
20960,1137,751
20965,1153,753
20970,1165,741
20975,1157,751
20980,1170,741
20985,1175,747
20990,1177,746
20995,1183,743
21000,1186,743
21005,1190,744
21010,1187,740
21015,1186,748
21020,1194,736
21025,1184,740
21030,1190,742
21035,1179,744
21040,1187,739
21045,1181,744
21050,1178,742
21055,1186,748
21060,1181,744
21065,1178,750
21070,1171,753
21075,1167,754
21080,1149,756
21085,1151,756
21090,1149,762
21095,1144,768
21100,1143,766
21105,1143,770
21110,1145,770
21115,1148,771
21120,1129,775
21125,1127,775
21130,1128,781
21135,1126,777
21140,1122,791
21145,1112,796
21150,1118,794
21155,1111,792
21160,1104,799
21165,1098,803
21170,1105,812
21175,1101,812
21180,1093,811
21185,1108,814
21190,1095,817
21195,1091,822
21200,1093,823
21205,1082,825
21210,1076,831
21215,1074,826
21220,1082,834
21225,1068,831
21230,1077,833
21235,1068,838
21240,1070,834
21245,1061,838
21250,1062,841
21255,1060,842
21260,1042,836
21265,1036,844
21270,1039,843
21275,1034,850
21280,1026,842
21285,1031,844
21290,1013,845
21295,1003,848
21300,1004,839
21305,996,843
21310,977,839
21315,973,846
21320,974,836
21325,952,845
21330,956,839
21335,935,842
21340,938,842
21345,933,838
21350,913,833
21355,904,832
21360,889,834
21365,893,838
21370,871,839
21375,856,835
21380,860,836
21385,838,830
21390,836,831
21395,829,830
21400,820,829
21405,798,828
21410,794,830
21415,803,829
21420,786,831
21425,782,825
21430,778,830
21435,771,828
21440,766,820
21445,757,826
21450,749,823
21455,757,818
21460,747,825
21465,749,823
21470,753,821
21475,748,815
21480,750,815
21485,755,820
21490,754,821
21495,751,814
21500,767,814
21505,761,814
21510,767,814
21515,769,814
21520,790,811
21525,797,810
21530,805,819
21535,809,805
21540,827,811
21545,831,802
21550,847,808
21555,847,804
21560,871,803
21565,878,808
21570,888,797
21575,890,795
21580,906,792
21585,939,793
21590,941,792
21595,956,790
21600,960,787
21605,979,783
21610,1002,788
21615,1005,785
21620,1016,776
21625,1036,776
21630,1040,775
21635,1063,778
21640,1066,769
21645,1082,771
21650,1086,763
21655,1105,761
21660,1113,763
21665,1121,754
21670,1127,758
21675,1148,751
21680,1151,751
21685,1157,753
21690,1158,746
21695,1170,749
21700,1173,748
21705,1173,751
21710,1187,740
21715,1183,741
21720,1178,742
21725,1179,742
21730,1196,747
21735,1201,741
21740,1188,744
21745,1189,741
21750,1190,737
21755,1194,731
21760,1184,743
21765,1180,739
21770,1185,740
21775,1169,744
21780,1174,746
21785,1171,749
21790,1173,747
21795,1171,745
21800,1165,753
21805,1158,759
21810,1157,758
21815,1140,765
21820,1144,765
21825,1148,773
21830,1139,766
21835,1135,771
21840,1133,774
21845,1141,777
21850,1124,783
21855,1119,782
21860,1121,788
21865,1123,794
21870,1115,798
21875,1110,802
21880,1119,793
21885,1104,802
21890,1105,806
21895,1099,813
21900,1099,813
21905,1099,813
21910,1092,816
21915,1084,818
21920,1088,826
21925,1089,825
21930,1076,831
21935,1079,830
21940,1088,829
21945,1078,836
21950,1079,836
21955,1077,837
21960,1071,843
21965,1066,837
21970,1063,839
21975,1050,837
21980,1047,840
21985,1050,842
21990,1036,840
21995,1032,849
22000,1028,840
22005,1032,843
22010,1012,841
22015,1008,846
22020,1011,844
22025,996,842
22030,986,846
22035,987,841
22040,977,843
22045,960,847
22050,950,844
22055,945,836
22060,941,845
22065,926,838
22070,904,833
22075,903,830
22080,902,834
22085,893,834
22090,879,834
22095,860,830
22100,849,827
22105,857,829
22110,836,831
22115,828,830
22120,816,832
22125,812,829
22130,797,828
22135,794,824
22140,783,825
22145,779,827
22150,766,823
22155,760,824
22160,765,822
22165,756,824
22170,756,816
22175,752,821
22180,755,817
22185,747,815
22190,748,822
22195,741,816
22200,744,817
22205,747,822
22210,751,820
22215,749,815
22220,761,818
22225,764,812
22230,766,812
22235,774,816
22240,789,818
22245,799,813
22250,810,810
22255,806,810
22260,822,802
22265,826,808
22270,841,807
22275,852,806
22280,859,804
22285,873,808
22290,888,800
22295,910,801
22300,910,794
22305,930,791
22310,931,793
22315,957,790
22320,973,783
22325,982,785
22330,990,781
22335,1006,780
22340,1019,780
22345,1036,777
22350,1036,779
22355,1060,773
22360,1071,770
22365,1083,764
22370,1089,763
22375,1098,761
22380,1097,761
22385,1117,764
22390,1131,755
22395,1138,759
22400,1144,751
22405,1159,755
22410,1162,751
22415,1165,748
22420,1164,744
22425,1176,746
22430,1176,744
22435,1187,745
22440,1187,747
22445,1184,746
22450,1183,745
22455,1176,747
22460,1186,741
22465,1185,741
22470,1185,739
22475,1189,738
22480,1178,742
22485,1187,746
22490,1175,739
22495,1176,748
22500,1174,742
22505,1166,748
22510,1172,754
22515,1165,757
22520,1163,746
22525,1165,752
22530,1156,758
22535,1152,767
22540,1151,766
22545,1143,764
22550,1137,769
22555,1141,772
22560,1132,775
22565,1129,782
22570,1135,778
22575,1114,784
22580,1121,785
22585,1117,791
22590,1118,794
22595,1109,800
22600,1101,802
22605,1107,798
22610,1109,805
22615,1098,809
22620,1100,813
22625,1093,816
22630,1094,814
22635,1084,817
22640,1093,821
22645,1074,822
22650,1075,828
22655,1080,832
22660,1084,832
22665,1074,831
22670,1063,831
22675,1070,835
22680,1071,839
22685,1070,843
22690,1060,843
22695,1051,840
22700,1046,843
22705,1047,840
22710,1036,839
22715,1038,843
22720,1030,843
22725,1022,845
22730,1021,848
22735,1015,847
22740,1013,841
22745,997,842
22750,982,848
22755,973,843
22760,977,835
22765,959,836
22770,954,839
22775,950,843
22780,946,836
22785,928,837
22790,914,836
22795,907,836
22800,899,836
22805,889,837
22810,880,828
22815,877,833
22820,861,832
22825,848,835
22830,841,832
22835,825,831
22840,832,825
22845,814,828
22850,799,828
22855,794,832
22860,792,823
22865,781,823
22870,778,827
22875,770,828
22880,766,821
22885,768,823
22890,747,828
22895,747,821
22900,746,825
22905,753,820
22910,759,819
22915,747,822
22920,746,817
22925,757,821
22930,752,814
22935,745,815
22940,753,819
22945,769,817
22950,766,814
22955,774,814
22960,787,812
22965,799,811
22970,795,808
22975,812,811
22980,819,810
22985,830,817
22990,832,809
22995,855,811
23000,857,802
23005,878,797
23010,876,802
23015,909,796
23020,914,797
23025,919,796
23030,938,792
23035,946,791
23040,969,793
23045,984,787
23050,992,783
23055,1001,778
23060,1019,777
23065,1020,778
23070,1037,772
23075,1054,775
23080,1067,772
23085,1070,767
23090,1092,763
23095,1108,770
23100,1097,756
23105,1117,759
23110,1128,755
23115,1140,756
23120,1145,754
23125,1147,752
23130,1154,754
23135,1160,747
23140,1182,749
23145,1164,748
23150,1175,743
23155,1177,741
23160,1177,741
23165,1179,737
23170,1181,742
23175,1185,741
23180,1183,740
23185,1194,736
23190,1194,740
23195,1189,747
23200,1192,739
23205,1183,745
23210,1185,745
23215,1175,744
23220,1170,744
23225,1176,744
23230,1178,752
23235,1170,755
23240,1166,752
23245,1166,757
23250,1161,760
23255,1153,762
23260,1153,761
23265,1152,765
23270,1130,771
23275,1137,772
23280,1136,770
23285,1138,779
23290,1119,780
23295,1122,785
23300,1128,781
23305,1125,794
23310,1117,792
23315,1119,792
23320,1109,801
23325,1110,800
23330,1107,803
23335,1106,801
23340,1099,811
23345,1097,813
23350,1103,814
23355,1088,820
23360,1091,820
23365,1093,824
23370,1089,820
23375,1094,829
23380,1072,831
23385,1070,831
23390,1080,828
23395,1069,834
23400,1069,835
23405,1061,839
23410,1061,834
23415,1054,843
23420,1048,842
23425,1045,848
23430,1042,842
23435,1041,844
23440,1036,839
23445,1008,840
23450,1026,843
23455,1011,843
23460,1003,844
23465,990,844
23470,988,839
23475,974,834
23480,973,841
23485,969,843
23490,963,843
23495,951,842
23500,940,837
23505,921,836
23510,921,837
23515,916,832
23520,902,844
23525,894,830
23530,883,831
23535,875,835
23540,866,832
23545,843,834
23550,848,832
23555,827,830
23560,826,829
23565,812,830
23570,811,828
23575,798,826
23580,788,826
23585,773,826
23590,773,821
23595,759,827
23600,769,829
23605,759,818
23610,763,820
23615,754,821
23620,764,819
23625,751,821
23630,750,821
23635,744,824
23640,742,819
23645,751,821
23650,748,822
23655,756,818
23660,759,817
23665,766,815
23670,772,809
23675,777,812
23680,782,813
23685,794,815
23690,796,814
23695,809,809
23700,814,805
23705,833,806
23710,839,807
23715,848,804
23720,863,803
23725,872,799
23730,882,803
23735,899,800
23740,904,796
23745,922,793
23750,935,795
23755,947,791
23760,965,791
23765,973,785
23770,980,787
23775,999,776
23780,1017,780
23785,1030,778
23790,1050,768
23795,1056,769
23800,1064,772
23805,1067,764
23810,1088,766
23815,1102,763
23820,1108,762
23825,1112,756
23830,1126,759
23835,1136,754
23840,1144,752
23845,1149,749
23850,1150,753
23855,1162,750
23860,1168,746
23865,1177,746
23870,1178,743
23875,1177,745
23880,1178,741
23885,1175,742
23890,1189,737
23895,1185,740
23900,1179,742
23905,1188,745
23910,1186,737
23915,1197,743
23920,1181,738
23925,1184,744
23930,1190,745
23935,1177,739
23940,1174,744
23945,1175,750
23950,1173,752
23955,1161,752
23960,1170,755
23965,1158,754
23970,1150,759
23975,1154,759
23980,1148,758
23985,1141,764
23990,1141,763
23995,1140,777
24000,1137,774
24005,1129,780
24010,1135,781
24015,1118,782
24020,1125,784
24025,1110,788
24030,1112,791
24035,1114,797
24040,1106,802
24045,1111,803
24050,1103,802
24055,1104,805
24060,1092,813
24065,1097,810
24070,1092,815
24075,1089,814
24080,1085,824
24085,1088,822
24090,1084,817
24095,1075,827
24100,1080,827
24105,1074,830
24110,1073,835
24115,1074,835
24120,1072,835
24125,1071,839
24130,1061,842
24135,1064,847
24140,1058,841
24145,1054,848
24150,1042,842
24155,1036,845
24160,1030,841
24165,1026,843
24170,1028,843
24175,1011,843
24180,1005,841
24185,1001,846
24190,998,840
24195,978,839
24200,977,839
24205,967,842
24210,958,840
24215,938,843
24220,945,838
24225,937,841
24230,923,840
24235,908,841
24240,904,830
24245,899,840
24250,888,833
24255,877,837
24260,865,834
24265,851,831
24270,839,830
24275,843,828
24280,822,827
24285,813,834
24290,798,829
24295,797,824
24300,797,821
24305,781,827
24310,786,829
24315,765,819
24320,773,824
24325,767,821
24330,756,818
24335,751,815
24340,747,817
24345,745,821
24350,745,816
24355,743,817
24360,749,815
24365,751,822
24370,748,815
24375,745,815
24380,753,822
24385,765,814
24390,764,822
24395,780,815
24400,775,814
24405,804,820
24410,788,808
24415,810,810
24420,821,805
24425,822,808
24430,834,810
24435,846,805
24440,871,810
24445,871,807
24450,886,803
24455,893,800
24460,908,797
24465,922,791
24470,927,794
24475,942,794
24480,955,792
24485,971,785
24490,986,781
24495,998,782
24500,1020,783
24505,1022,784
24510,1036,783
24515,1049,776
24520,1058,768
24525,1080,769
24530,1090,769
24535,1098,760
24540,1100,765
24545,1111,761
24550,1115,758
24555,1137,753
24560,1136,757
24565,1145,754
24570,1155,751
24575,1167,746
24580,1170,749
24585,1161,746
24590,1170,740
24595,1186,743
24600,1187,742
24605,1186,742
24610,1185,742
24615,1187,741
24620,1183,739
24625,1187,744
24630,1178,742
24635,1185,739
24640,1182,741
24645,1181,743
24650,1177,744
24655,1177,743
24660,1173,754
24665,1173,746
24670,1164,755
24675,1175,750
24680,1159,750
24685,1152,762
24690,1161,754
24695,1152,755
24700,1153,757
24705,1144,763
24710,1140,764
24715,1137,776
24720,1137,778
24725,1140,780
24730,1122,785
24735,1118,777
24740,1126,786
24745,1118,787
24750,1117,790
24755,1113,796
24760,1112,796
24765,1105,802
24770,1105,805
24775,1103,801
24780,1102,811
24785,1099,812
24790,1096,813
24795,1088,813
24800,1091,820
24805,1090,827
24810,1088,824
24815,1078,829
24820,1086,828
24825,1079,829
24830,1073,836
24835,1067,836
24840,1073,838
24845,1078,840
24850,1060,843
24855,1058,837
24860,1052,840
24865,1053,836
24870,1049,842
24875,1044,841
24880,1031,848
24885,1027,842
24890,1025,842
24895,1018,845
24900,1015,843
24905,1000,842
24910,994,847
24915,989,839
24920,984,843
24925,966,838
24930,966,836
24935,952,840
24940,931,832
24945,946,838
24950,938,839
24955,907,835
24960,908,839
24965,895,828
24970,877,833
24975,879,833
24980,861,833
24985,861,828
24990,844,838
24995,840,828
25000,825,827
25005,822,825
25010,799,825
25015,794,831
25020,799,822
25025,789,824
25030,784,827
25035,771,818
25040,770,815
25045,772,824
25050,749,822
25055,755,824
25060,749,822
25065,746,822
25070,750,821
25075,743,816
25080,751,821
25085,748,824
25090,752,822
25095,751,820
25100,758,813
25105,757,820
25110,762,808
25115,779,812
25120,779,812
25125,794,812
25130,798,808
25135,803,808
25140,813,814
25145,816,806
25150,827,804
25155,841,804
25160,851,806
25165,866,800
25170,876,803
25175,885,797
25180,893,802
25185,909,789
25190,936,798
25195,940,789
25200,958,792
25205,976,788
25210,992,783
25215,996,784
25220,1003,779
25225,1023,775
25230,1038,781
25235,1053,777
25240,1069,767
25245,1070,766
25250,1073,773
25255,1103,763
25260,1105,760
25265,1111,761
25270,1125,757
25275,1138,758
25280,1132,752
25285,1139,754
25290,1149,756
25295,1157,748
25300,1171,751
25305,1163,748
25310,1172,740
25315,1185,751
25320,1193,742
25325,1178,744
25330,1190,742
25335,1190,746
25340,1183,742
25345,1187,741
25350,1185,743
25355,1189,740
25360,1177,740
25365,1191,743
25370,1183,743
25375,1191,745
25380,1178,746
25385,1173,744
25390,1167,746
25395,1175,745
25400,1169,753
25405,1157,754
25410,1162,760
25415,1151,754
25420,1151,764
25425,1142,766
25430,1139,772
25435,1130,775
25440,1145,772
25445,1133,776
25450,1131,778
25455,1124,776
25460,1121,781
25465,1117,789
25470,1118,785
25475,1117,793
25480,1118,797
25485,1105,801
25490,1099,807
25495,1100,802
25500,1100,815
25505,1097,811
25510,1101,814
25515,1091,820
25520,1095,815
25525,1087,825
25530,1084,825
25535,1083,830
25540,1078,829
25545,1072,831
25550,1069,835
25555,1073,835
25560,1064,837
25565,1066,835
25570,1058,839
25575,1059,840
25580,1052,837
25585,1050,842
25590,1047,851
25595,1043,841
25600,1034,842
25605,1026,848
25610,1025,847
25615,1008,839
25620,1009,846
25625,990,848
25630,989,845
25635,991,845
25640,986,844
25645,974,843
25650,963,842
25655,947,840
25660,943,841
25665,933,836
25670,933,840
25675,913,839
25680,898,835
25685,900,834
25690,886,836
25695,880,834
25700,862,833
25705,859,824
25710,850,824
25715,842,829
25720,828,826
25725,821,826
25730,809,828
25735,796,830
25740,793,827
25745,792,828
25750,780,822
25755,767,821
25760,775,827
25765,762,824
25770,768,815
25775,756,823
25780,744,820
25785,751,822
25790,750,822
25795,753,821
25800,752,816
25805,741,814
25810,757,819
25815,758,823
25820,761,817
25825,759,816
25830,767,820
25835,773,815
25840,769,813
25845,782,810
25850,797,812
25855,792,811
25860,812,810
25865,817,806
25870,832,805
25875,833,805
25880,852,803
25885,859,802
25890,873,800
25895,885,799
25900,904,794
25905,911,802
25910,929,794
25915,940,792
25920,962,786
25925,974,786
25930,977,788
25935,997,785
25940,1007,782
25945,1019,777
25950,1032,783
25955,1042,774
25960,1063,773
25965,1077,770
25970,1085,769
25975,1092,762
25980,1098,759
25985,1117,760
25990,1119,757
25995,1120,754
26000,1142,756
26005,1137,750
26010,1151,758
26015,1158,744
26020,1158,745
26025,1166,744
26030,1182,748
26035,1173,743
26040,1180,742
26045,1186,746
26050,1184,740
26055,1199,737
26060,1195,736
26065,1197,740
26070,1185,739
26075,1192,741
26080,1182,739
26085,1187,741
26090,1179,741
26095,1182,743
26100,1170,739
26105,1174,751
26110,1175,749
26115,1170,746
26120,1172,750
26125,1165,753
26130,1154,756
26135,1157,754
26140,1148,762
26145,1143,765
26150,1148,768
26155,1134,770
26160,1142,772
26165,1128,771
26170,1130,782
26175,1129,784
26180,1122,783
26185,1126,782
26190,1119,792
26195,1118,792
26200,1110,796
26205,1114,798
26210,1108,802
26215,1109,807
26220,1112,807
26225,1098,815
26230,1090,814
26235,1095,818
26240,1090,824
26245,1091,827
26250,1085,826
26255,1073,829
26260,1073,829
26265,1075,828
26270,1081,834
26275,1075,835
26280,1074,835
26285,1071,838
26290,1063,838
26295,1060,846
26300,1052,839
26305,1046,839
26310,1043,844
26315,1036,844
26320,1034,844
26325,1024,843
26330,1015,843
26335,1023,844
26340,1014,844
26345,999,842
26350,987,843
26355,988,844
26360,977,841
26365,981,839
26370,972,842
26375,957,847
26380,943,841
26385,938,839
26390,919,835
26395,911,834
26400,907,832
26405,900,838
26410,887,831
26415,876,839
26420,870,837
26425,848,831
26430,841,828
26435,839,824
26440,825,835
26445,823,825
26450,815,837
26455,800,825
26460,801,827
26465,793,826
26470,774,823
26475,780,824
26480,766,823
26485,770,819
26490,757,822
26495,753,822
26500,747,821
26505,753,825
26510,749,817
26515,753,820
26520,749,819
26525,750,820
26530,748,821
26535,754,816
26540,754,814
26545,755,820
26550,763,818
26555,769,817
26560,768,814
26565,782,813
26570,801,817
26575,805,810
26580,810,818
26585,812,806
26590,828,808
26595,832,804
26600,845,808
26605,862,800
26610,863,802
26615,882,804
26620,895,800
26625,909,799
26630,923,791
26635,933,793
26640,957,790
26645,972,787
26650,977,788
26655,996,780
26660,1004,785
26665,1014,779
26670,1037,778
26675,1041,777
26680,1052,771
26685,1064,771
26690,1080,772
26695,1094,773
26700,1101,765
26705,1112,760
26710,1112,764
26715,1128,758
26720,1145,755
26725,1142,762
26730,1146,750
26735,1150,749
26740,1157,741
26745,1164,751
26750,1182,748
26755,1182,740
26760,1188,742
26765,1185,745
26770,1185,739
26775,1184,745
26780,1189,745
26785,1182,741
26790,1197,740
26795,1181,749
26800,1188,746
26805,1186,743
26810,1180,746
26815,1176,745
26820,1179,745
26825,1173,748
26830,1180,743
26835,1177,752
26840,1161,750
26845,1162,757
26850,1160,757
26855,1158,761
26860,1148,762
26865,1149,764
26870,1147,764
26875,1144,770
26880,1131,772
26885,1132,777
26890,1124,786
26895,1131,782
26900,1129,783
26905,1124,785
26910,1121,788
26915,1116,793
26920,1115,797
26925,1109,797
26930,1097,801
26935,1104,808
26940,1093,812
26945,1097,807
26950,1100,816
26955,1087,818
26960,1091,823
26965,1094,821
26970,1090,825
26975,1082,828
26980,1077,832
26985,1086,829
26990,1080,828
26995,1069,831
27000,1067,841
27005,1064,838
27010,1062,837
27015,1056,835
27020,1062,834
27025,1051,843
27030,1040,841
27035,1044,840
27040,1031,844
27045,1033,842
27050,1023,845
27055,1012,844
27060,1009,843
27065,1005,846
27070,995,842
27075,991,843
27080,982,839
27085,977,843
27090,962,841
27095,955,839
27100,949,842
27105,938,835
27110,924,838
27115,920,835
27120,898,837
27125,904,836
27130,888,831
27135,884,837
27140,874,834
27145,875,835
27150,854,830
27155,841,823
27160,823,830
27165,822,823
27170,811,824
27175,799,830
27180,793,829
27185,784,830
27190,783,830
27195,781,822
27200,768,824
27205,766,822
27210,757,826
27215,760,825
27220,753,823
27225,749,821
27230,748,823
27235,754,820
27240,750,824
27245,745,820
27250,759,822
27255,753,819
27260,755,818
27265,754,818
27270,763,821
27275,768,814
27280,780,820
27285,778,810
27290,795,810
27295,794,810
27300,800,809
27305,822,810
27310,828,807
27315,831,807
27320,845,805
27325,860,805
27330,876,801
27335,885,808
27340,897,798
27345,912,799
27350,928,798
27355,936,788
27360,958,797
27365,972,791
27370,978,785
27375,989,787
27380,1012,783
27385,1012,780
27390,1030,780
27395,1049,773
27400,1055,770
27405,1066,772
27410,1079,769
27415,1085,773
27420,1097,765
27425,1112,765
27430,1119,758
27435,1118,753
27440,1134,757
27445,1138,752
27450,1145,754
27455,1160,746
27460,1168,751
27465,1170,746
27470,1184,743
27475,1171,742
27480,1177,742
27485,1180,737
27490,1185,743
27495,1186,731
27500,1187,742
27505,1184,741
27510,1185,739
27515,1189,745
27520,1188,737
27525,1189,749
27530,1183,741
27535,1183,741
27540,1183,746
27545,1175,748
27550,1172,753
27555,1166,750
27560,1169,753
27565,1165,753
27570,1154,755
27575,1164,760
27580,1151,755
27585,1156,766
27590,1150,768
27595,1141,765
27600,1145,766
27605,1134,777
27610,1136,774
27615,1122,778
27620,1128,782
27625,1118,790
27630,1123,788
27635,1125,794
27640,1119,793
27645,1106,800
27650,1103,808
27655,1103,804
27660,1106,806
27665,1100,812
27670,1092,811
27675,1090,824
27680,1086,825
27685,1091,817
27690,1088,821
27695,1084,825
27700,1082,828
27705,1082,832
27710,1074,832
27715,1080,833
27720,1078,836
27725,1063,838
27730,1064,837
27735,1060,836
27740,1063,840
27745,1051,845
27750,1035,842
27755,1041,839
27760,1041,840
27765,1031,847
27770,1030,850
27775,1013,843
27780,1013,847
27785,1003,844
27790,1001,838
27795,990,842
27800,985,846
27805,968,845
27810,972,838
27815,960,842
27820,952,842
27825,942,837
27830,926,843
27835,922,843
27840,908,834
27845,886,832
27850,896,829
27855,882,833
27860,873,833
27865,870,830
27870,857,833
27875,845,836
27880,836,829
27885,829,833
27890,825,827
27895,807,824
27900,801,830
27905,798,827
27910,787,824
27915,775,825
27920,774,825
27925,760,825
27930,765,821
27935,761,822
27940,756,827
27945,750,819
27950,738,820
27955,749,827
27960,753,827
27965,744,816
27970,749,818
27975,756,817
27980,755,820
27985,756,816
27990,766,818
27995,774,820
28000,775,815
28005,782,814
28010,779,815
28015,798,809
28020,808,809
28025,813,811
28030,817,810
28035,837,812
28040,846,803
28045,863,804
28050,858,807
28055,875,801
28060,899,797
28065,907,797
28070,933,793
28075,934,797
28080,949,791
28085,960,794
28090,971,793
28095,989,786
28100,994,780
28105,1011,779
28110,1031,775
28115,1040,774
28120,1046,769
28125,1075,778
28130,1075,772
28135,1081,771
28140,1087,765
28145,1106,762
28150,1118,765
28155,1126,760
28160,1134,756
28165,1136,752
28170,1162,749
28175,1147,747
28180,1158,747
28185,1171,749
28190,1172,746
28195,1180,746
28200,1174,739
28205,1183,734
28210,1183,747
28215,1181,743
28220,1190,742
28225,1186,748
28230,1181,737
28235,1189,743
28240,1182,743
28245,1188,743
28250,1185,739
28255,1185,747
28260,1176,743
28265,1175,743
28270,1179,747
28275,1170,749
28280,1168,752
28285,1171,757
28290,1162,757
28295,1164,760
28300,1163,758
28305,1152,764
28310,1149,771
28315,1139,771
28320,1142,772
28325,1138,776
28330,1131,775
28335,1126,780
28340,1131,783
28345,1120,785
28350,1127,788
28355,1111,792
28360,1121,794
28365,1114,795
28370,1106,802
28375,1103,803
28380,1108,809
28385,1095,812
28390,1105,814
28395,1094,809
28400,1088,817
28405,1086,820
28410,1096,825
28415,1106,823
28420,1077,826
28425,1084,831
28430,1077,828
28435,1063,831
28440,1068,835
28445,1071,837
28450,1062,835
28455,1069,838
28460,1062,837
28465,1053,842
28470,1054,839
28475,1041,844
28480,1042,839
28485,1038,846
28490,1031,840
28495,1017,847
28500,1013,843
28505,1004,844
28510,1000,843
28515,989,842
28520,987,845
28525,978,841
28530,961,838
28535,958,843
28540,948,839
28545,936,841
28550,923,837
28555,926,834
28560,915,831
28565,897,841
28570,886,833
28575,887,834
28580,877,835
28585,864,836
28590,853,827
28595,846,829
28600,834,836
28605,828,831
28610,821,830
28615,808,830
28620,801,831
28625,790,828
28630,786,822
28635,776,822
28640,783,826
28645,761,825
28650,768,815
28655,757,826
28660,750,826
28665,759,822
28670,754,821
28675,753,819
28680,742,815
28685,743,822
28690,750,813
28695,756,817
28700,754,814
28705,753,817
28710,755,815
28715,780,818
28720,782,815
28725,772,813
28730,779,811
28735,798,814
28740,804,809
28745,806,812
28750,833,811
28755,831,804
28760,851,801
28765,861,809
28770,861,810
28775,884,799
28780,896,800
28785,900,800
28790,918,797
28795,928,795
28800,940,787
28805,954,789
28810,971,788
28815,991,786
28820,1000,784
28825,1018,786
28830,1024,780
28835,1041,774
28840,1041,770
28845,1060,771
28850,1074,765
28855,1093,769
28860,1094,767
28865,1113,758
28870,1125,760
28875,1124,761
28880,1122,752
28885,1136,759
28890,1145,755
28895,1161,747
28900,1159,750
28905,1171,743
28910,1169,740
28915,1178,744
28920,1179,740
28925,1191,742
28930,1183,737
28935,1192,739
28940,1192,743
28945,1179,739
28950,1185,743
28955,1196,740
28960,1186,742
28965,1177,740
28970,1177,737
28975,1179,750
28980,1184,744
28985,1180,745
28990,1178,744
28995,1176,751
29000,1163,752
29005,1164,750
29010,1164,750
29015,1154,762
29020,1152,755
29025,1143,764
29030,1144,765
29035,1144,767
29040,1146,768
29045,1137,772
29050,1133,774
29055,1131,781
29060,1140,781
29065,1115,785
29070,1118,792
29075,1117,794
29080,1117,796
29085,1115,798
29090,1105,803
29095,1107,803
29100,1101,808
29105,1099,812
29110,1096,815
29115,1096,811
29120,1090,812
29125,1095,820
29130,1103,823
29135,1085,827
29140,1081,825
29145,1089,828
29150,1087,831
29155,1079,829
29160,1069,834
29165,1071,833
29170,1066,831
29175,1057,839
29180,1048,843
29185,1055,841
29190,1047,838
29195,1033,841
29200,1046,846
29205,1033,844
29210,1032,844
29215,1025,845
29220,1014,842
29225,1006,843
29230,1005,842
29235,996,840
29240,992,840
29245,978,842
29250,970,841
29255,970,848
29260,951,837
29265,943,837
29270,924,836
29275,925,838
29280,910,838
29285,902,832
29290,907,836
29295,888,837
29300,872,834
29305,866,830
29310,857,835
29315,841,829
29320,834,827
29325,821,830
29330,817,823
29335,805,828
29340,807,827
29345,793,822
29350,780,827
29355,785,831
29360,775,821
29365,764,825
29370,758,817
29375,755,823
29380,753,821
29385,749,821
29390,750,817
29395,752,821
29400,743,820
29405,749,818
29410,763,817
29415,749,813
29420,751,814
29425,751,813
29430,759,818
29435,752,818
29440,770,811
29445,775,811
29450,782,812
29455,787,811
29460,793,805
29465,814,813
29470,822,809
29475,839,805
29480,841,807
29485,857,805
29490,868,800
29495,876,804
29500,893,800
29505,907,797
29510,920,797
29515,928,796
29520,947,793
29525,957,789
29530,966,790
29535,983,785
29540,991,787
29545,1015,781
29550,1017,777
29555,1033,777
29560,1048,775
29565,1050,770
29570,1074,774
29575,1081,767
29580,1097,765
29585,1104,767
29590,1114,761
29595,1127,755
29600,1136,753
29605,1139,750
29610,1149,752
29615,1157,750
29620,1161,756
29625,1166,746
29630,1173,755
29635,1183,747
29640,1175,740
29645,1190,744
29650,1182,744
29655,1188,741
29660,1188,744
29665,1201,736
29670,1186,744
29675,1189,741
29680,1181,741
29685,1187,746
29690,1183,738
29695,1183,745
29700,1178,741
29705,1171,744
29710,1178,743
29715,1166,755
29720,1179,749
29725,1162,748
29730,1161,750
29735,1148,761
29740,1155,758
29745,1148,755
29750,1149,765
29755,1145,766
29760,1154,770
29765,1140,767
29770,1129,775
29775,1131,777
29780,1131,784
29785,1119,786
29790,1117,789
29795,1118,790
29800,1122,793
29805,1114,795
29810,1100,801
29815,1113,804
29820,1105,807
29825,1107,807
29830,1099,811
29835,1092,816
29840,1091,817
29845,1096,823
29850,1102,823
29855,1079,822
29860,1080,828
29865,1086,827
29870,1076,827
29875,1080,826
29880,1078,834
29885,1073,830
29890,1072,839
29895,1066,838
29900,1060,839
29905,1055,840
29910,1047,838
29915,1038,846
29920,1040,840
29925,1032,848
29930,1031,837
29935,1023,838
29940,1015,844
29945,1008,839
29950,996,842
29955,998,850
29960,989,841
29965,981,841
29970,974,839
29975,963,841
29980,958,839
29985,946,841
29990,934,832
29995,930,839
30000,921,836
30005,909,839
30010,891,833
30015,897,831
30020,886,832
30025,859,831
30030,869,834
30035,844,825
30040,846,836
30045,834,829
30050,824,827
30055,811,835
30060,805,832
30065,798,828
30070,781,821
30075,771,825
30080,772,828
30085,769,821
30090,761,821
30095,763,820
30100,755,823
30105,744,820
30110,753,825
30115,759,814
30120,740,821
30125,751,820
30130,744,822
30135,744,818
30140,751,810
30145,757,817
30150,754,815
30155,768,815
30160,769,816
30165,777,815
30170,786,812
30175,802,810
30180,806,808
30185,820,812
30190,813,807
30195,834,809
30200,842,812
30205,846,804
30210,861,800
30215,874,802
30220,895,799
30225,895,792
30230,918,796
30235,933,789
30240,944,794
30245,941,793
30250,967,787
30255,978,788
30260,988,785
30265,1006,781
30270,1017,782
30275,1029,767
30280,1043,774
30285,1054,776
30290,1076,767
30295,1085,768
30300,1082,758
30305,1100,764
30310,1121,762
30315,1125,759
30320,1130,754
30325,1131,755
30330,1152,755
30335,1150,751
30340,1152,749
30345,1170,751
30350,1167,744
30355,1175,745
30360,1181,741
30365,1178,741
30370,1190,744
30375,1183,743
30380,1194,744
30385,1189,743
30390,1187,737
30395,1183,743
30400,1192,741
30405,1183,745
30410,1181,743
30415,1187,741
30420,1196,742
30425,1175,743
30430,1176,755
30435,1170,746
30440,1166,753
30445,1171,754
30450,1162,751
30455,1149,756
30460,1153,758
30465,1141,763
30470,1147,756
30475,1142,769
30480,1143,770
30485,1138,773
30490,1135,769
30495,1131,780
30500,1125,783
30505,1127,786
30510,1121,786
30515,1118,789
30520,1118,792
30525,1118,795
30530,1107,797
30535,1106,800
30540,1101,804
30545,1100,809
30550,1093,812
30555,1097,812
30560,1100,813
30565,1093,818
30570,1084,824
30575,1081,827
30580,1081,824
30585,1083,829
30590,1068,826
30595,1079,837
30600,1080,837
30605,1065,833
30610,1065,835
30615,1069,833
30620,1065,837
30625,1057,838
30630,1054,842
30635,1055,844
30640,1045,846
30645,1034,844
30650,1031,844
30655,1020,845
30660,1025,840
30665,1002,840
30670,1002,845
30675,1004,843
30680,995,840
30685,973,840
30690,979,840
30695,962,844
30700,948,848
30705,951,840
30710,927,840
30715,928,838
30720,916,837
30725,916,834
30730,897,837
30735,892,833
30740,883,836
30745,867,835
30750,859,831
30755,847,829
30760,839,834
30765,829,828
30770,818,834
30775,807,834
30780,806,826
30785,791,828
30790,786,829
30795,782,827
30800,774,814
30805,770,830
30810,767,825
30815,759,822
30820,764,817
30825,762,825
30830,749,820
30835,756,822
30840,747,818
30845,750,820
30850,748,819
30855,749,818
30860,751,818
30865,763,819
30870,761,822
30875,763,811
30880,764,813
30885,780,813
30890,778,815
30895,784,815
30900,801,813
30905,807,810
30910,820,806
30915,827,806
30920,836,805
30925,849,804
30930,861,808
30935,868,803
30940,878,796
30945,888,797
30950,918,796
30955,926,794
30960,942,802
30965,955,791
30970,959,792
30975,973,789
30980,987,786
30985,1004,785
30990,1017,780
30995,1029,776
