timestamp_ms,ir_finger,ir_toe
0,1045,679
5,1058,688
10,1070,687
15,1065,700
20,1076,701
25,1100,705
30,1083,710
35,1097,719
40,1119,722
45,1118,724
50,1126,735
55,1141,735
60,1139,741
65,1150,753
70,1153,760
75,1155,766
80,1163,774
85,1157,783
90,1177,786
95,1174,790
100,1179,795
105,1187,802
110,1178,805
115,1184,813
120,1185,824
125,1188,828
130,1189,838
135,1197,841
140,1191,844
145,1195,857
150,1189,857
155,1189,863
160,1195,869
165,1191,871
170,1186,876
175,1174,876
180,1187,878
185,1186,882
190,1174,888
195,1181,889
200,1172,893
205,1175,897
210,1164,898
215,1158,903
220,1163,903
225,1147,909
230,1155,908
235,1152,909
240,1147,918
245,1143,917
250,1140,912
255,1141,914
260,1140,913
265,1139,915
270,1125,915
275,1132,916
280,1129,915
285,1132,917
290,1122,913
295,1115,910
300,1112,907
305,1111,910
310,1111,911
315,1102,906
320,1118,907
325,1101,907
330,1099,906
335,1102,905
340,1110,904
345,1097,903
350,1096,895
355,1094,894
360,1096,894
365,1089,895
370,1087,890
375,1095,890
380,1089,891
385,1091,882
390,1079,883
395,1088,875
400,1083,878
405,1081,874
410,1061,882
415,1066,870
420,1075,872
425,1064,873
430,1066,875
435,1057,868
440,1052,866
445,1055,869
450,1050,861
455,1048,866
460,1040,861
465,1051,857
470,1027,859
475,1028,857
480,1027,857
485,1017,856
490,1012,856
495,1018,861
500,1010,853
505,1004,857
510,991,849
515,991,850
520,977,849
525,972,848
530,965,849
535,958,846
540,946,840
545,938,837
550,927,842
555,934,832
560,918,834
565,911,830
570,907,828
575,895,825
580,889,824
585,879,822
590,880,823
595,855,821
600,856,815
605,851,815
610,844,811
615,831,811
620,829,805
625,813,798
630,814,788
635,819,794
640,807,791
645,800,785
650,789,778
655,791,780
660,788,770
665,780,765
670,767,765
675,765,754
680,766,750
685,760,751
690,766,742
695,747,740
700,746,733
705,745,733
710,750,721
715,751,714
720,742,713
725,751,714
730,748,708
735,749,702
740,748,697
745,767,697
750,758,694
755,765,683
760,760,682
765,765,671
770,774,673
775,776,674
780,785,669
785,790,657
790,802,659
795,807,657
800,801,656
805,812,654
810,824,653
815,837,649
820,839,648
825,855,645
830,854,651
835,879,645
840,894,653
845,887,644
850,906,642
855,917,648
860,932,645
865,933,644
870,934,648
875,950,645
880,964,655
885,973,656
890,988,658
895,1003,667
900,1002,666
905,1015,671
910,1032,674
915,1047,677
920,1061,686
925,1062,691
930,1063,688
935,1076,693
940,1086,698
945,1082,707
950,1102,715
955,1108,718
960,1114,719
965,1118,730
970,1127,733
975,1145,742
980,1144,753
985,1144,761
990,1155,762
995,1163,769
1000,1163,779
1004,1175,780
1010,1170,787
1014,1169,800
1020,1175,804
1025,1190,803
1030,1182,816
1035,1186,816
1040,1187,828
1045,1194,836
1050,1186,834
1055,1197,845
1060,1194,850
1065,1191,846
1070,1184,857
1075,1180,863
1080,1186,871
1085,1176,872
1090,1176,879
1095,1177,879
1100,1183,886
1105,1167,891
1110,1172,890
1115,1168,891
1120,1174,903
1125,1184,897
1130,1164,907
1135,1163,902
1140,1160,908
1145,1158,903
1150,1151,914
1155,1156,918
1160,1147,911
1165,1145,911
1170,1141,918
1175,1142,915
1180,1137,919
1185,1128,913
1190,1126,916
1195,1136,919
1200,1130,917
1205,1114,916
1210,1124,914
1215,1111,909
1220,1116,914
1225,1104,911
1230,1110,906
1235,1106,906
1240,1108,911
1245,1108,904
1250,1096,902
1255,1103,899
1260,1099,901
1265,1097,899
1270,1102,895
1275,1098,894
1280,1091,889
1285,1098,894
1290,1092,888
1295,1090,883
1300,1085,884
1305,1078,890
1310,1083,885
1315,1082,885
1320,1069,880
1325,1073,876
1330,1069,876
1335,1064,873
1340,1058,877
1345,1065,869
1350,1063,867
1355,1061,868
1360,1052,870
1365,1051,873
1370,1047,866
1375,1037,862
1380,1044,859
1385,1029,855
1390,1025,861
1395,1024,858
1400,1023,861
1405,1010,857
1410,1015,851
1415,1018,852
1420,998,855
1425,993,853
1430,986,849
1435,976,850
1440,978,851
1445,973,851
1450,956,850
1455,950,845
1460,938,841
1465,930,836
1470,928,844
1475,931,834
1480,921,838
1485,908,829
1490,910,830
1495,896,825
1500,876,823
1505,871,822
1510,872,816
1515,857,815
1520,846,813
1525,842,815
1530,843,802
1535,832,807
1540,825,798
1545,808,797
1550,814,797
1555,795,791
1560,793,784
1565,788,782
1570,792,774
1575,778,768
1580,774,770
1585,774,765
1590,770,766
1595,765,754
1600,755,751
1605,753,750
1610,748,741
1615,752,737
1620,756,734
1625,750,724
1630,745,718
1635,755,718
1640,744,709
1645,757,708
1650,750,702
1655,743,700
1660,755,695
1665,754,689
1670,757,688
1675,764,683
1680,775,672
1685,767,676
1690,771,671
1695,793,666
1700,789,664
1705,793,658
1710,802,657
1715,805,657
1720,819,656
1725,817,651
1730,833,649
1735,838,648
1740,848,650
1745,871,647
1750,872,644
1755,893,650
1760,891,647
1765,897,645
1770,912,647
1775,922,650
1780,930,650
1785,935,650
1790,955,650
1795,962,658
1800,966,655
1805,981,661
1810,995,662
1815,1000,663
1820,1016,668
1825,1027,672
1830,1040,676
1835,1050,684
1840,1056,686
1845,1056,686
1850,1075,692
1855,1091,696
1860,1093,703
1865,1088,715
1870,1097,722
1875,1114,722
1880,1121,728
1885,1131,734
1890,1125,739
1895,1137,747
1900,1151,756
1905,1159,764
1910,1158,767
1915,1161,772
1920,1170,779
1925,1164,785
1930,1180,793
1935,1182,798
1940,1180,802
1945,1178,814
1950,1192,816
1955,1186,824
1960,1186,826
1965,1185,837
1970,1180,844
1975,1194,851
1980,1188,850
1985,1184,860
1990,1192,859
1995,1186,868
2000,1186,869
2005,1183,876
2009,1190,875
2015,1183,887
2020,1190,889
2025,1172,894
2029,1179,894
2035,1167,899
2040,1156,904
2045,1165,905
2050,1161,908
2055,1159,905
2060,1156,910
2065,1150,910
2070,1152,912
2075,1159,911
2080,1149,918
2085,1140,911
2090,1143,915
2095,1138,915
2100,1131,909
2105,1128,919
2110,1124,908
2115,1121,909
2120,1121,913
2125,1125,912
2130,1127,913
2135,1115,910
2140,1113,910
2145,1110,905
2150,1104,905
2155,1109,908
2160,1102,901
2165,1099,905
2170,1105,904
2175,1106,901
2180,1099,901
2185,1086,898
2190,1087,893
2195,1088,890
2200,1097,898
2205,1095,891
2210,1088,893
2215,1087,884
2220,1078,886
2225,1078,881
2230,1080,883
2235,1062,880
2240,1077,876
2245,1067,874
2250,1067,876
2255,1067,872
2260,1071,875
2265,1062,867
2270,1062,867
2275,1054,859
2280,1061,860
2285,1054,867
2290,1043,855
2295,1044,865
2300,1039,864
2305,1033,857
2310,1028,858
2315,1031,855
2320,1012,854
2325,1011,857
2330,1011,851
2335,1003,855
2340,981,851
2345,996,854
2350,983,850
2355,980,845
2360,972,847
2365,971,842
2370,956,845
2375,945,846
2380,932,838
2385,937,838
2390,931,840
2395,918,840
2400,911,831
2405,902,831
2410,898,825
2415,895,823
2420,875,823
2425,867,822
2430,859,817
2435,850,815
2440,848,812
2445,837,806
2450,830,807
2455,825,806
2460,821,791
2465,820,799
2470,802,792
2475,798,784
2480,796,786
2485,784,783
2490,782,776
2495,773,773
2500,782,760
2505,773,762
2510,758,755
2515,759,752
2520,756,749
2525,763,740
2530,750,739
2535,757,732
2540,746,731
2545,740,721
2550,753,714
2555,754,714
2560,745,704
2565,758,704
2570,757,694
2575,759,698
2580,757,692
2585,764,687
2590,747,686
2595,760,679
2600,766,679
2605,776,673
2610,777,669
2615,787,665
2620,792,666
2625,796,660
2630,814,655
2635,809,655
2640,830,648
2645,834,648
2650,835,658
2655,849,649
2660,860,648
2665,877,647
2670,881,646
2675,881,646
2680,894,644
2685,905,648
2690,912,652
2695,930,651
2700,938,649
2705,947,650
2710,956,651
2715,967,660
2720,976,659
2725,983,663
2730,1001,661
2735,1011,671
2740,1020,671
2745,1039,673
2750,1037,675
2755,1048,688
2760,1062,685
2765,1070,695
2770,1078,701
2775,1077,700
2780,1087,711
2785,1101,712
2790,1116,719
2795,1118,723
2800,1127,733
2805,1121,744
2810,1134,744
2815,1143,744
2820,1158,757
2825,1158,766
2830,1151,770
2835,1165,774
2840,1173,782
2845,1179,789
2850,1179,794
2855,1173,798
2860,1180,809
2865,1181,817
2870,1185,818
2875,1175,826
2880,1184,835
2885,1184,839
2890,1188,842
2895,1182,851
2900,1188,852
2905,1184,859
2910,1189,865
2915,1181,869
2920,1182,874
2925,1184,875
2930,1180,882
2935,1175,885
2940,1174,888
2945,1179,889
2950,1174,898
2955,1179,900
2960,1171,906
2965,1171,907
2970,1168,909
2975,1152,907
2980,1153,913
2985,1155,910
2990,1152,913
2995,1150,913
3000,1147,911
3005,1145,916
3010,1130,917
3015,1137,915
3020,1136,918
3025,1129,914
3030,1131,912
3035,1121,910
3040,1120,919
3045,1109,906
3050,1125,912
3055,1117,909
3060,1120,910
3065,1114,910
3070,1109,910
3075,1104,900
3080,1105,905
3085,1104,904
3090,1103,906
3095,1103,902
3100,1090,898
3105,1100,894
3110,1103,893
3115,1088,894
3120,1091,890
3125,1082,885
3130,1080,886
3135,1084,882
3140,1091,881
3145,1090,884
3150,1071,878
3155,1071,875
3160,1080,879
3165,1066,874
3170,1066,871
3175,1063,874
3180,1072,871
3185,1053,868
3190,1056,869
3195,1057,869
3200,1048,864
3205,1049,859
3210,1031,863
3215,1040,864
3220,1038,865
3225,1027,857
3230,1016,858
3235,1014,857
3240,1012,853
3245,1019,854
3250,994,850
3255,997,851
3260,1001,850
3265,983,851
3270,977,852
3275,975,845
3280,963,847
3285,955,847
3290,957,850
3295,944,843
3300,937,837
3305,928,840
3310,923,837
3315,921,826
3320,902,831
3325,902,829
3330,898,832
3335,889,820
3340,873,824
3345,868,818
3350,865,816
3355,841,812
3360,847,813
3365,834,811
3370,832,808
3375,824,802
3380,818,803
3385,817,791
3390,804,786
3395,791,781
3400,787,777
3405,784,781
3410,782,776
3415,783,766
3420,770,769
3425,763,754
3430,758,753
3435,764,753
3440,755,747
3445,744,741
3450,755,732
3455,747,733
3460,745,729
3465,745,723
3470,754,717
3475,751,715
3480,751,710
3485,754,706
3490,758,706
3495,755,695
3500,763,690
3505,752,684
3510,765,681
3515,770,681
3520,772,669
3525,779,672
3530,783,670
3535,788,660
3540,790,658
3545,804,655
3550,811,653
3555,825,656
3560,830,653
3565,832,649
3570,843,646
3575,850,645
3580,862,648
3585,875,645
3590,886,642
3595,885,645
3600,905,641
3605,908,646
3610,927,641
3615,933,649
3620,942,650
3625,954,651
3630,964,657
3635,976,662
3640,987,655
3645,994,660
3650,1006,665
3655,1019,667
3660,1035,675
3665,1044,680
3670,1056,683
3675,1050,684
3680,1070,691
3685,1076,692
3690,1079,699
3695,1089,712
3700,1098,711
3705,1113,713
3710,1109,727
3715,1116,729
3720,1127,733
3725,1137,743
3730,1138,747
3735,1156,749
3740,1148,758
3745,1152,769
3750,1159,774
3755,1171,778
3760,1169,787
3765,1178,795
3770,1181,798
3775,1184,810
3780,1181,815
3785,1184,816
3790,1187,824
3795,1177,829
3800,1186,839
3805,1179,845
3810,1187,852
3815,1184,859
3820,1175,863
3825,1189,870
3830,1188,874
3835,1192,867
3840,1186,874
3845,1192,879
3850,1178,885
3855,1180,890
3860,1174,890
3865,1175,896
3870,1169,899
3875,1166,903
3880,1157,903
3885,1154,909
3890,1161,907
3895,1157,907
3900,1148,915
3905,1157,906
3910,1147,917
3915,1141,917
3920,1139,920
3925,1147,910
3930,1126,914
3935,1128,916
3940,1132,917
3945,1128,917
3950,1125,912
3955,1125,921
3960,1117,911
3965,1114,912
3970,1114,911
3975,1117,910
3980,1111,910
3985,1109,911
3990,1111,904
3995,1099,901
4000,1100,905
4005,1104,905
4010,1098,894
4014,1100,896
4019,1100,897
4025,1095,895
4030,1087,890
4035,1089,894
4040,1092,887
4045,1096,887
4050,1086,887
4054,1085,887
4059,1081,885
4065,1075,875
4070,1078,876
4075,1080,878
4080,1068,877
4085,1067,877
4090,1067,868
4094,1063,871
4100,1061,871
4105,1061,867
4110,1056,864
4115,1050,863
4120,1050,863
4125,1039,863
4130,1037,861
4135,1046,861
4140,1024,862
4145,1024,859
4150,1018,861
4155,1017,855
4160,1009,857
4165,1001,853
4170,1003,850
4175,995,848
4180,987,851
4185,981,851
4190,980,842
4195,974,844
4200,963,843
4205,957,846
4210,953,843
4215,937,836
4220,931,840
4225,918,833
4230,911,837
4235,909,833
4240,907,832
4245,896,830
4250,880,824
4255,878,827
4260,868,825
4265,859,813
4270,860,809
4275,845,816
4280,848,809
4285,819,805
4290,821,807
4295,819,797
4300,820,797
4305,812,788
4310,798,787
4315,800,787
4320,789,780
4325,772,771
4330,774,770
4335,768,767
4340,764,757
4345,769,760
4350,759,754
4355,757,743
4360,751,740
4365,750,733
4370,748,735
4375,748,727
4380,748,719
4385,753,717
4390,751,710
4395,750,710
4400,750,704
4405,750,697
4410,750,695
4415,753,696
4420,766,685
4425,768,682
4430,768,681
4435,778,672
4440,769,668
4445,788,670
4450,783,659
4455,787,663
4460,808,657
4465,813,659
4470,807,653
4475,826,649
4480,823,650
4485,840,648
4490,846,646
4495,861,648
4500,866,652
4505,890,646
4510,888,649
4515,890,640
4520,915,648
4525,918,650
4530,935,649
4535,942,647
4540,947,649
4545,956,653
4550,970,653
4555,984,661
4560,993,666
4565,1008,665
4570,1013,665
4575,1024,670
4580,1034,677
4585,1039,681
4590,1048,684
4595,1070,691
4600,1064,691
4605,1076,703
4610,1100,697
4615,1094,706
4620,1102,717
4625,1114,722
4630,1115,726
4635,1136,732
4640,1141,741
4645,1141,751
4650,1139,754
4655,1153,759
4660,1150,765
4665,1164,772
4670,1169,773
4675,1171,789
4680,1170,787
4685,1182,790
4690,1175,805
4695,1183,803
4700,1195,820
4705,1180,824
4710,1189,831
4715,1183,837
4720,1188,837
4725,1188,844
4730,1187,850
4735,1188,856
4740,1190,857
4745,1186,867
4750,1186,869
4755,1179,870
4760,1179,883
4765,1181,887
4770,1177,889
4775,1179,891
4780,1169,898
4785,1171,896
4790,1164,905
4795,1164,907
4800,1164,905
4805,1167,905
4810,1158,908
4815,1158,908
4820,1151,912
4825,1147,907
4830,1145,909
4835,1139,919
4840,1137,919
4845,1136,920
4850,1138,914
4855,1135,918
4860,1123,911
4865,1129,920
4870,1132,907
4875,1113,917
4880,1111,911
4885,1116,909
4890,1115,908
4895,1107,910
4900,1114,901
4905,1109,906
4910,1101,902
4915,1107,901
4920,1103,897
4925,1104,900
4930,1100,897
4935,1104,896
4940,1094,895
4945,1100,888
4950,1093,892
4955,1086,889
4960,1085,891
4965,1086,884
4970,1081,886
4975,1073,883
4980,1076,879
4985,1074,878
4990,1076,878
4995,1078,875
5000,1071,874
5005,1068,877
5010,1066,872
5015,1060,876
5020,1068,864
5025,1052,868
5030,1048,867
5035,1046,862
5040,1049,861
5045,1048,860
5050,1030,858
5055,1037,860
5060,1026,861
5065,1031,858
5070,1023,857
5075,1007,856
5080,1012,855
5085,995,856
5090,1003,849
5095,993,849
5100,981,851
5105,976,849
5110,957,845
5115,965,848
5120,964,846
5125,943,846
5130,934,837
5135,937,836
5140,925,841
5145,925,832
5150,918,839
5155,890,829
5160,897,826
5165,883,827
5170,884,820
5175,876,823
5180,860,822
5185,853,813
5190,858,814
5195,845,809
5200,834,804
5205,834,799
5210,816,803
5215,818,795
5220,815,789
5225,801,788
5230,789,787
5235,789,782
5240,788,773
5245,783,777
5250,780,769
5255,767,766
5260,765,760
5265,763,752
5270,763,746
5275,760,740
5280,750,738
5285,740,732
5290,748,731
5295,750,728
5300,740,714
5305,744,717
5310,743,708
5315,750,704
5320,750,698
5325,748,698
5330,754,700
5335,757,683
5340,760,685
5345,769,681
5350,771,672
5355,773,671
5360,783,672
5365,792,664
5370,793,662
5375,788,660
5380,802,659
5385,819,658
5390,822,656
5395,831,652
5400,836,652
5405,849,645
5410,857,644
5415,860,645
5420,876,643
5425,888,645
5430,887,646
5435,892,645
5440,911,644
5445,924,648
5450,936,651
5455,941,647
5460,951,657
5465,970,651
5470,986,656
5475,992,661
5480,996,663
5485,1011,669
5490,1015,669
5495,1034,678
5500,1046,681
5505,1048,687
5510,1060,683
5515,1061,692
5520,1081,702
5525,1089,705
5530,1096,706
5535,1102,715
5540,1106,722
5545,1124,728
5550,1125,732
5555,1121,739
5560,1135,744
5565,1141,752
5570,1149,758
5575,1160,763
5580,1164,766
5585,1160,781
5590,1171,779
5595,1172,792
5600,1166,796
5605,1185,799
5610,1178,804
5615,1176,815
5620,1184,818
5625,1189,820
5630,1177,827
5635,1189,839
5640,1187,841
5645,1191,845
5650,1183,848
5655,1187,859
5660,1187,862
5665,1184,870
5670,1182,873
5675,1184,875
5680,1178,883
5685,1179,888
5690,1174,885
5695,1173,891
5700,1171,894
5705,1171,893
5710,1169,898
5715,1165,905
5720,1167,904
5725,1162,899
5730,1148,913
5735,1154,911
5740,1151,910
5745,1140,914
5750,1149,915
5755,1149,918
5760,1135,918
5765,1136,915
5770,1140,917
5775,1135,916
5780,1135,916
5785,1127,918
5790,1128,917
5795,1116,914
5800,1112,913
5805,1113,910
5810,1109,911
5815,1117,911
5820,1108,907
5825,1107,903
5830,1111,906
5835,1102,901
5840,1101,903
5845,1101,900
5850,1089,896
5855,1096,895
5860,1100,893
5865,1091,889
5870,1088,891
5875,1088,886
5880,1087,884
5885,1081,882
5890,1089,885
5895,1083,882
5900,1075,880
5905,1072,882
5910,1073,879
5915,1079,876
5920,1064,876
5925,1059,874
5930,1062,871
5935,1062,873
5940,1061,870
5945,1057,866
5950,1055,861
5955,1058,862
5960,1034,863
5965,1038,857
5970,1032,857
5975,1033,858
5980,1026,859
5985,1017,855
5990,1014,855
5995,999,863
6000,998,846
6005,993,850
6010,992,848
6015,993,849
6020,981,854
6025,973,848
6030,977,848
6035,958,849
6040,948,844
6045,956,837
6050,947,839
6055,940,841
6060,922,841
6065,925,835
6070,907,829
6075,896,824
6080,887,828
6085,877,826
6090,881,821
6095,875,820
6100,857,823
6105,860,815
6110,847,812
6115,831,805
6120,826,802
6125,824,808
6130,807,796
6135,812,790
6140,803,794
6145,801,785
6150,794,784
6155,789,775
6160,782,773
6165,766,766
6170,774,761
6175,766,760
6180,763,756
6185,762,753
6190,755,742
6195,756,735
6200,754,737
6205,746,733
6210,749,729
6215,752,726
6220,747,717
6225,756,715
6230,751,707
6235,741,706
6240,751,699
6245,758,699
6250,756,691
6255,756,688
6260,760,682
6265,769,683
6270,777,675
6275,783,667
6280,783,666
6285,782,663
6290,806,662
6295,809,653
6300,823,657
6305,818,655
6310,835,651
6315,832,646
6320,839,646
6325,842,642
6330,859,647
6335,868,645
6340,880,650
6345,896,642
6350,898,643
6355,935,649
6360,924,647
6365,935,644
6370,934,652
6375,950,653
6380,963,650
6385,971,663
6390,988,659
6395,997,665
6400,1011,666
6405,1010,664
6410,1030,676
6415,1032,677
6420,1047,685
6425,1049,689
6430,1063,688
6435,1078,697
6440,1081,699
6445,1087,702
6450,1102,711
6455,1099,716
6460,1118,726
6465,1125,730
6470,1135,741
6475,1141,740
6480,1139,746
6485,1151,754
6490,1154,760
6495,1156,766
6500,1161,772
6505,1167,782
6510,1176,785
6515,1176,793
6520,1186,800
6525,1182,808
6530,1185,813
6535,1187,818
6540,1186,823
6545,1189,827
6550,1185,837
6555,1181,838
6560,1192,845
6565,1191,849
6570,1192,858
6575,1186,863
6580,1190,866
6585,1182,869
6590,1182,873
6595,1180,881
6600,1173,887
6605,1181,884
6610,1175,888
6615,1174,900
6620,1171,898
6625,1167,899
6630,1164,906
6635,1162,910
6640,1161,904
6645,1165,906
6650,1150,913
6655,1154,910
6660,1153,915
6665,1150,918
6670,1142,915
6675,1140,913
6680,1136,913
6685,1134,914
6690,1125,912
6695,1133,913
6700,1126,915
6705,1130,908
6710,1125,916
6715,1118,912
6720,1113,914
6725,1097,911
6730,1113,912
6735,1104,910
6740,1105,908
6745,1101,896
6750,1106,901
6755,1102,902
6760,1103,902
6765,1102,903
6770,1094,896
6775,1093,897
6780,1089,888
6785,1093,890
6790,1086,891
6795,1088,885
6800,1088,886
6805,1086,890
6810,1083,882
6815,1077,881
6820,1081,881
6825,1073,877
6830,1079,872
6835,1061,870
6840,1066,868
6845,1068,874
6850,1055,872
6855,1063,866
6860,1058,864
6865,1047,858
6870,1048,863
6875,1046,861
6880,1044,859
6885,1035,853
6890,1030,865
6895,1026,856
6900,1021,851
6905,1013,853
6910,1006,858
6915,1002,854
6920,999,854
6925,988,856
6930,991,847
6935,983,852
6940,976,851
6945,973,844
6950,957,845
6955,966,843
6960,955,835
6965,937,845
6970,938,836
6975,930,836
6980,924,836
6985,905,835
6990,893,832
6995,896,833
7000,884,830
7005,875,826
7010,878,813
7015,859,818
7020,854,818
7025,852,809
7030,839,807
7035,828,799
7040,826,797
7045,823,802
7050,817,790
7055,802,788
7060,808,790
7065,797,782
7070,795,776
7075,786,774
7080,775,771
7085,769,769
7090,767,765
7095,759,760
7100,760,751
7105,753,746
7110,756,749
7115,750,736
7120,749,729
7125,741,728
7130,749,723
7135,746,724
7140,750,715
7145,745,711
7150,750,705
7155,751,696
7160,758,692
7165,749,687
7170,758,686
7175,759,685
7180,761,682
7185,778,680
7190,778,668
7195,796,675
7200,778,662
7205,794,661
7210,799,661
7215,817,659
7220,818,656
7225,820,647
7230,837,651
7235,849,651
7240,857,647
7245,859,643
7250,871,645
7255,880,646
7260,884,644
7265,904,642
7270,907,648
7275,925,647
7280,929,650
7285,935,650
7290,940,650
7295,961,649
7300,976,658
7305,987,655
7310,992,659
7315,1001,655
7320,1013,672
7325,1021,668
7330,1037,681
7335,1053,676
7340,1051,684
7345,1057,690
7350,1065,697
7355,1082,698
7360,1087,705
7365,1105,708
7370,1105,712
7375,1116,717
7380,1116,729
7385,1123,735
7390,1129,743
7395,1142,743
7400,1145,752
7405,1147,760
7410,1152,762
7415,1161,768
7420,1159,782
7425,1170,786
7430,1181,794
7435,1168,803
7440,1180,803
7445,1181,809
7450,1181,816
7455,1186,820
7460,1193,828
7465,1188,835
7470,1186,837
7475,1196,845
7480,1191,849
7485,1183,857
7490,1185,862
7495,1184,864
7500,1189,868
7505,1181,875
7510,1188,878
7515,1185,883
7520,1180,883
7525,1184,893
7530,1173,889
7535,1180,901
7540,1162,902
7545,1165,906
7550,1161,902
7555,1159,904
7560,1162,910
7565,1156,909
7570,1159,912
7575,1143,914
7580,1147,915
7585,1136,914
7590,1143,911
7595,1143,915
7600,1137,913
7605,1138,917
7610,1132,918
7615,1127,916
7620,1131,923
7625,1126,918
7630,1128,909
7635,1115,914
7640,1121,908
7645,1107,913
7650,1112,910
7655,1108,906
7660,1102,905
7665,1109,895
7670,1110,897
7675,1103,901
7680,1094,893
7685,1100,903
7690,1094,899
7695,1101,885
7700,1087,892
7705,1091,893
7710,1079,888
7715,1092,885
7720,1087,886
7725,1079,877
7730,1072,881
7735,1078,879
7740,1082,879
7745,1078,876
7750,1060,877
7755,1067,874
7760,1053,869
7765,1059,870
7770,1060,871
7775,1056,873
7780,1047,872
7785,1040,861
7790,1050,861
7795,1046,860
7800,1031,857
7805,1031,861
7810,1029,861
7815,1024,861
7820,1012,856
7825,1013,852
7830,1001,849
7835,1003,849
7840,998,856
7845,986,855
7850,981,851
7855,981,845
7860,974,847
7865,963,840
7870,970,845
7875,957,835
7880,950,840
7885,936,838
7890,932,841
7895,926,834
7900,912,840
7905,903,828
7910,897,826
7915,887,821
7920,886,823
7925,869,817
7930,875,820
7935,858,819
7940,844,815
7945,832,816
7950,834,808
7955,823,805
7960,824,801
7965,812,795
7970,816,794
7975,802,789
7980,793,784
7985,789,782
7990,784,778
7995,788,776
8000,778,767
8005,771,764
8010,759,760
8015,759,755
8020,751,743
8025,753,742
8029,756,740
8035,747,735
8039,751,720
8045,752,721
8050,753,723
8055,739,716
8060,743,707
8064,749,710
8070,742,709
8074,757,698
8080,758,693
8085,760,688
8090,757,693
8095,763,680
8100,771,673
8105,775,671
8109,781,669
8115,791,668
8119,794,665
8125,807,657
8130,804,657
8135,816,658
8140,813,651
8145,828,653
8150,836,653
8154,845,649
8160,860,651
8164,859,651
8170,876,641
8175,884,651
8180,901,647
8185,899,643
8189,908,641
8195,928,644
8200,927,651
8205,948,652
8210,960,658
8215,960,657
8220,977,655
8225,982,662
8230,996,656
8235,1006,671
8240,1026,672
8245,1020,671
8250,1030,674
8255,1051,680
8260,1051,684
8265,1064,692
8270,1080,701
8275,1081,697
8280,1092,706
8285,1102,718
8290,1112,718
8295,1114,728
8300,1116,729
8305,1131,735
8310,1136,741
8315,1147,744
8320,1143,759
8325,1154,757
8330,1153,771
8335,1158,773
8340,1164,780
8345,1172,791
8350,1169,794
8355,1177,803
8360,1177,806
8365,1180,817
8370,1181,816
8375,1185,824
8380,1188,836
8385,1197,837
8390,1193,842
8395,1180,852
8400,1190,854
8405,1191,860
8410,1182,860
8415,1181,869
8420,1184,873
8425,1188,877
8430,1187,877
8435,1180,886
8440,1184,889
8445,1177,888
8450,1172,891
8455,1165,897
8460,1167,902
8465,1159,905
8470,1165,900
8475,1158,908
8480,1157,906
8485,1154,909
8490,1154,912
8495,1147,911
8500,1147,915
8505,1145,913
8510,1145,914
8515,1139,912
8520,1134,913
8525,1142,916
8530,1128,912
8535,1126,914
8540,1117,912
8545,1119,911
8550,1119,913
8555,1124,912
8560,1114,910
8565,1112,912
8570,1108,908
8575,1106,899
8580,1101,901
8585,1105,905
8590,1094,893
8595,1101,904
8600,1105,904
8605,1095,898
8610,1102,898
8615,1093,897
8620,1090,885
8625,1080,886
8630,1088,885
8635,1083,882
8640,1083,885
8645,1064,881
8650,1070,875
8655,1072,878
8660,1075,876
8665,1070,873
8670,1070,873
8675,1066,870
8680,1057,874
8685,1054,864
8690,1057,869
8695,1051,862
8700,1051,868
8705,1045,870
8710,1043,864
8715,1036,860
8720,1032,861
8725,1028,858
8730,1034,866
8735,1026,859
8740,1008,848
8745,1004,857
8750,1006,850
8755,999,847
8760,992,853
8765,985,844
8770,986,850
8775,965,849
8780,969,846
8785,956,843
8790,961,844
8795,952,840
8800,941,843
8805,934,840
8810,935,832
8815,914,834
8820,914,832
8825,907,831
8830,902,827
8835,890,821
8840,886,822
8845,878,826
8850,856,816
8855,850,812
8860,852,810
8865,841,804
8870,832,805
8875,828,801
8880,822,803
8885,809,796
8890,799,790
8895,796,784
8900,791,774
8905,800,781
8910,775,771
8915,783,765
8920,773,763
8925,773,762
8930,772,757
8935,771,750
8940,763,748
8945,757,741
8950,758,733
8955,748,734
8960,756,726
8965,744,725
8970,740,725
8975,741,715
8980,746,711
8985,747,707
8990,744,701
8995,760,698
9000,757,691
9005,764,692
9010,765,678
9015,769,677
9020,768,675
9025,768,676
9030,782,670
9035,790,669
9040,790,665
9045,797,660
9050,810,652
9055,821,654
9060,828,660
9065,836,647
9070,846,648
9075,853,655
9080,860,649
9085,864,644
9090,874,646
9095,887,644
9100,894,643
9105,905,648
9110,918,649
9115,919,647
9120,943,651
9125,944,655
9130,957,654
9135,964,651
9140,985,659
9145,986,663
9150,1010,663
9155,1008,664
9160,1029,673
9165,1031,676
9170,1036,682
9175,1053,681
9180,1066,690
9185,1062,700
9190,1084,696
9195,1095,708
9200,1095,713
9205,1106,714
9210,1118,724
9215,1128,726
9220,1121,737
9225,1137,735
9230,1149,744
9235,1150,757
9240,1151,759
9245,1155,765
9250,1159,775
9255,1174,780
9260,1169,786
9265,1177,795
9270,1172,805
9275,1176,806
9280,1177,805
9285,1185,816
9290,1191,826
9295,1193,826
9300,1193,832
9305,1184,842
9310,1191,847
9315,1185,847
9320,1196,857
9325,1185,862
9330,1183,866
9335,1183,873
9340,1187,880
9345,1180,878
9350,1180,882
9355,1179,888
9360,1173,891
9365,1176,889
9370,1171,900
9375,1169,901
9380,1170,896
9385,1165,905
9390,1162,906
9395,1151,906
9400,1154,915
9405,1144,911
9410,1149,914
9415,1142,916
9420,1142,914
9425,1143,913
9430,1125,915
9435,1127,914
9440,1136,914
9445,1133,911
9450,1129,912
9455,1127,918
9460,1117,909
9465,1120,911
9470,1115,915
9475,1109,911
9480,1115,907
9485,1114,906
9490,1100,903
9495,1109,902
9500,1107,906
9505,1100,903
9510,1102,894
9515,1106,894
9520,1101,895
9525,1099,895
9530,1097,891
9535,1093,888
9540,1093,886
9545,1089,890
9550,1084,885
9555,1076,883
9560,1082,878
9565,1084,882
9570,1075,873
9575,1083,878
9580,1076,877
9585,1065,874
9590,1063,876
9595,1063,874
9600,1060,873
9605,1054,869
9610,1056,860
9615,1051,865
9620,1052,865
9625,1041,863
9630,1034,860
9635,1036,863
9640,1039,861
9645,1029,857
9650,1027,860
9655,1018,859
9660,1011,856
9665,1010,855
9670,997,852
9675,996,855
9680,995,853
9685,985,854
9690,976,852
9695,971,847
9700,960,841
9705,947,839
9710,943,840
9715,946,844
9720,937,836
9725,935,844
9730,920,835
9735,906,828
9740,908,832
9745,893,832
9750,888,827
9755,883,823
9760,862,820
9765,865,820
9770,851,816
9775,836,815
9780,849,808
9785,827,806
9790,823,803
9795,820,798
9800,817,793
9805,804,791
9810,795,793
9815,795,785
9820,788,781
9825,785,774
9830,777,771
9835,768,768
9840,774,758
9845,763,757
9850,763,751
9855,762,749
9860,754,738
9865,760,740
9870,748,731
9875,757,727
9880,747,723
9885,749,718
9890,753,717
9895,747,708
9900,740,708
9905,756,695
9910,750,697
9915,755,691
9920,764,686
9925,762,688
9930,766,680
9935,769,678
9940,776,675
9945,789,672
9950,791,662
9955,796,665
9960,793,659
9965,813,659
9970,819,655
9975,816,651
9980,829,650
9985,843,648
9990,841,642
9995,853,646
10000,869,648
10005,875,643
10010,881,644
10015,895,648
10020,909,644
10025,919,650
10030,925,642
10035,932,649
10040,943,653
10045,960,656
10050,970,654
10055,974,662
10060,985,662
10065,994,670
10070,1007,667
10075,1019,670
10080,1029,670
10085,1040,675
10090,1046,684
10095,1065,686
10100,1058,700
10105,1077,696
10110,1084,703
10115,1098,708
10120,1099,713
10125,1108,718
10130,1116,728
10135,1121,731
10140,1131,738
10145,1144,744
10150,1142,745
10155,1145,753
10160,1149,765
10165,1163,765
10170,1162,775
10175,1167,785
10180,1173,793
10185,1179,800
10190,1179,798
10195,1178,809
10200,1183,815
10205,1190,819
10210,1182,830
10215,1184,829
10220,1193,835
10225,1187,846
10230,1190,850
10235,1189,852
10240,1186,854
10245,1199,867
10250,1185,871
10255,1187,873
10260,1187,878
10265,1173,882
10270,1173,884
10275,1174,886
10280,1175,892
10285,1171,897
10290,1170,902
10295,1163,900
10300,1171,904
10305,1158,907
10310,1160,909
10315,1161,904
10320,1150,907
10325,1139,912
10330,1162,915
10335,1129,913
10340,1141,919
10345,1140,910
10350,1140,913
10355,1141,915
10360,1137,919
10365,1125,910
10370,1128,907
10375,1124,913
10380,1119,909
10385,1122,911
10390,1112,908
10395,1112,905
10400,1106,910
10405,1110,910
10410,1116,906
10415,1105,900
10420,1098,903
10425,1106,902
10430,1104,900
10435,1095,897
10440,1098,897
10445,1100,892
10450,1092,897
10455,1087,885
10460,1089,893
10465,1074,886
10470,1086,880
10475,1089,878
10480,1069,880
10485,1073,880
10490,1076,879
10495,1076,872
10500,1074,875
10505,1062,875
10510,1067,871
10515,1062,867
10520,1065,867
10525,1053,870
10530,1053,867
10535,1052,864
10540,1046,866
10545,1042,866
10550,1036,861
10555,1039,860
10560,1035,862
10565,1024,859
10570,1017,852
10575,1011,856
10580,1015,856
10585,1006,848
10590,1005,848
10595,988,853
10600,999,851
10605,988,850
10610,975,847
10615,969,849
10620,962,844
10625,952,841
10630,941,842
10635,939,843
10640,934,838
10645,929,837
10650,911,835
10655,912,831
10660,896,827
10665,887,831
10670,872,825
10675,880,823
10680,868,820
10685,860,816
10690,853,813
10695,852,811
10700,832,805
10705,819,801
10710,820,800
10715,810,792
10720,803,791
10725,804,793
10730,792,786
10735,781,786
10740,789,779
10745,783,771
10750,779,769
10755,777,763
10760,775,762
10765,765,757
10770,757,744
10775,755,748
10780,753,743
10785,749,738
10790,744,733
10795,745,730
10800,748,721
10805,737,721
10810,751,713
10815,750,710
10820,759,700
10825,753,701
10830,748,698
10835,763,687
10840,764,684
10845,774,683
10850,767,681
10855,766,672
10860,783,672
10865,782,667
10870,792,661
10875,798,663
10880,799,660
10885,812,659
10890,816,656
10895,832,652
10900,834,648
10905,839,650
10910,848,654
10915,862,639
10920,874,645
10925,875,645
10930,892,647
10935,901,646
10940,910,647
10945,915,642
10950,930,653
10955,940,651
10960,952,649
10965,958,656
10970,975,655
10975,984,656
10980,989,660
10985,1006,666
10990,1015,666
10995,1030,672
11000,1031,676
11005,1049,683
11010,1046,688
11015,1066,691
11020,1065,694
11025,1084,699
11030,1085,706
11035,1103,708
11040,1111,715
11045,1112,721
11050,1117,728
11055,1130,736
11060,1137,738
11065,1146,748
11070,1143,750
11075,1153,758
11080,1162,769
11085,1165,771
11090,1176,776
11095,1167,784
11100,1170,793
11105,1180,801
11110,1177,804
11115,1194,809
11120,1192,819
11125,1184,827
11130,1180,831
11135,1190,835
11140,1192,837
11145,1182,847
11150,1186,854
11155,1188,858
11160,1184,855
11165,1182,869
11170,1187,874
11175,1183,877
11180,1174,880
11185,1193,889
11190,1181,888
11195,1181,894
11200,1177,889
11205,1173,898
11210,1167,905
11215,1161,905
11220,1161,905
11225,1153,910
11230,1155,908
11235,1152,908
11240,1149,911
11245,1152,919
11250,1145,915
11255,1142,919
11260,1139,917
11265,1134,913
11270,1121,910
11275,1130,908
11280,1130,920
11285,1128,915
11290,1126,918
11295,1112,909
11300,1133,913
11305,1107,916
11310,1120,910
11315,1111,911
11320,1113,907
11325,1113,908
11330,1112,901
11335,1109,903
11340,1101,906
11345,1100,897
11350,1092,898
11355,1099,892
11360,1090,893
11365,1098,887
11370,1094,893
11375,1096,886
11380,1095,885
11385,1076,893
11390,1088,884
11395,1077,881
11400,1078,875
11405,1076,876
11410,1065,877
11415,1071,876
11420,1076,876
11425,1067,873
11430,1060,869
11435,1063,868
11440,1076,871
11445,1051,865
11450,1048,864
11455,1051,865
11460,1043,865
11465,1041,865
11470,1037,862
11475,1031,863
11480,1027,859
11485,1022,856
11490,1011,857
11495,1012,856
11500,1017,856
11505,993,855
11510,998,849
11515,988,849
11520,978,856
11525,968,846
11530,960,849
11535,963,840
11540,948,847
11545,948,844
11550,945,843
11555,933,836
11560,927,834
11565,922,834
11570,910,836
11575,901,833
11580,891,831
11585,891,824
11590,873,821
11595,870,822
11600,855,818
11605,860,816
11610,847,819
11615,839,805
11620,835,805
11625,831,798
11630,810,799
11635,813,797
11640,808,792
11645,798,790
11650,793,782
11655,787,782
11660,769,773
11665,781,772
11670,780,763
11675,769,756
11680,761,758
11685,763,749
11690,755,748
11695,762,742
11700,752,733
11705,747,731
11710,737,728
11715,740,721
11720,749,720
11725,744,711
11730,749,707
11735,751,703
11740,743,700
11745,752,698
11750,760,693
11755,749,689
11760,768,682
11765,763,673
11770,771,675
11775,778,674
11780,789,668
11785,784,662
11790,798,661
11795,812,661
11800,809,660
11805,819,655
11810,828,653
11815,834,654
11820,829,650
11825,841,650
11830,864,648
11835,880,643
11840,882,647
11845,878,647
11850,890,644
11855,911,646
11860,917,652
11865,926,643
11870,943,644
11875,960,653
11880,958,649
11885,971,658
11890,982,660
11895,1004,654
11900,999,655
11905,1017,662
11910,1030,671
11915,1034,679
11920,1047,677
11925,1047,681
11930,1064,689
11935,1067,692
11940,1084,702
11945,1091,700
11950,1101,713
11955,1102,714
11960,1113,719
11965,1122,726
11970,1121,735
11975,1135,734
11980,1142,746
11985,1143,751
11990,1164,756
11995,1154,762
12000,1151,771
12005,1158,774
12010,1165,783
12015,1175,792
12020,1169,800
12025,1171,808
12030,1177,805
12035,1190,812
12040,1189,825
12045,1183,829
12050,1191,834
12055,1181,838
12060,1185,842
12065,1198,847
12070,1185,853
12075,1192,863
12080,1192,864
12085,1178,868
12090,1189,875
12095,1179,882
12100,1180,880
12105,1178,889
12110,1176,892
12115,1176,893
12120,1173,897
12125,1168,896
12130,1165,898
12135,1167,902
12140,1157,901
12145,1167,907
12150,1154,907
12155,1155,912
12160,1144,915
12165,1153,909
12170,1139,916
12175,1136,912
12180,1136,914
12185,1136,912
12190,1132,910
12195,1137,918
12200,1122,916
12205,1127,908
12210,1129,908
12215,1108,912
12220,1113,912
12225,1110,908
12230,1116,912
12235,1111,908
12240,1108,904
12245,1100,900
12250,1109,900
12255,1101,905
12260,1094,901
12265,1104,901
12270,1092,899
12275,1100,900
12280,1087,897
12285,1095,895
12290,1089,893
12295,1083,888
12300,1079,894
12305,1087,886
12310,1076,884
12315,1086,882
12320,1081,878
12325,1076,878
12330,1074,880
12335,1069,878
12340,1064,873
12345,1060,872
12350,1058,873
12355,1068,865
12360,1056,864
12365,1054,866
12370,1042,864
12375,1042,863
12380,1047,864
12385,1044,862
12390,1037,855
12395,1027,863
12400,1021,857
12405,1022,857
12410,1018,852
12415,1007,851
12420,993,857
12425,995,852
12430,995,855
12435,981,843
12440,976,846
12445,975,846
12450,966,850
12455,952,845
12460,951,842
12465,948,841
12470,935,839
12475,934,838
12480,925,836
12485,912,836
12490,905,830
12495,912,828
12500,889,829
12505,877,820
12510,875,822
12515,867,819
12520,865,818
12525,844,812
12530,838,810
12535,837,811
12540,827,802
12545,825,801
12550,821,798
12555,815,793
12560,800,789
12565,800,784
12570,792,778
12575,792,780
12580,781,772
12585,768,771
12590,764,761
12595,762,760
12600,748,749
12605,765,752
12610,755,746
12615,744,742
12620,752,733
12625,749,728
12630,745,721
12635,747,716
12640,742,714
12645,754,710
12650,747,716
12655,753,698
12660,754,696
12665,761,691
12670,755,688
12675,758,682
12680,777,680
12685,770,676
12690,768,672
12695,779,666
12700,780,665
12705,789,667
12710,797,655
12715,808,656
12720,817,653
12725,813,651
12730,832,646
12735,834,649
12740,840,649
12745,855,646
12750,858,648
12755,869,646
12760,890,645
12765,883,642
12770,904,647
12775,918,645
12780,923,649
12785,937,652
12790,947,650
12795,947,648
12800,964,652
12805,972,657
12810,987,661
12815,998,662
12820,1005,672
12825,1020,671
12830,1031,670
12835,1042,681
12840,1048,678
12845,1062,687
12850,1056,694
12855,1084,699
12860,1079,703
12865,1088,708
12870,1106,710
12875,1111,718
12880,1115,725
12885,1120,733
12890,1124,739
12895,1144,744
12900,1137,748
12905,1147,756
12910,1153,760
12915,1164,767
12920,1163,779
12925,1165,784
12930,1171,792
12935,1174,796
12940,1171,799
12945,1171,807
12950,1182,813
12955,1181,816
12960,1179,820
12965,1185,833
12970,1190,835
12975,1179,848
12980,1198,853
12985,1188,853
12990,1191,855
12995,1182,864
13000,1189,870
13005,1189,873
13010,1189,882
13015,1182,884
13020,1177,884
13025,1180,890
13030,1180,900
13035,1175,894
13040,1170,898
13045,1161,895
13050,1160,905
13055,1165,903
13060,1167,909
13065,1153,906
13070,1160,911
13075,1144,908
13080,1156,910
13085,1145,914
13090,1153,910
13095,1143,915
13100,1127,912
13105,1132,918
13110,1134,915
13115,1134,915
13120,1132,918
13125,1128,914
13130,1120,914
13135,1127,910
13140,1120,914
13145,1113,912
13150,1109,909
13155,1121,902
13160,1100,905
13165,1108,898
13170,1102,903
13175,1101,894
13180,1088,903
13185,1098,897
13190,1098,896
13195,1096,892
13200,1100,893
13205,1093,892
13210,1087,890
13215,1085,884
13220,1086,879
13225,1083,890
13230,1067,881
13235,1073,880
13240,1075,880
13245,1068,874
13250,1077,875
13255,1083,873
13260,1066,876
13265,1058,870
13270,1056,869
13275,1056,866
13280,1055,859
13285,1050,864
13290,1043,863
13295,1044,858
13300,1034,857
13305,1027,858
13310,1026,859
13315,1025,857
13320,1021,856
13325,1025,854
13330,1003,858
13335,994,853
13340,1001,850
13345,991,849
13350,989,845
13355,983,847
13360,983,849
13365,967,847
13370,966,841
13375,963,846
13380,951,845
13385,941,838
13390,930,844
13395,927,833
13400,912,834
13405,918,832
13410,893,829
13415,887,827
13420,896,826
13425,875,821
13430,875,821
13435,855,815
13440,857,812
13445,843,812
13450,838,805
13455,831,807
13460,822,804
13465,825,796
13470,820,794
13475,806,789
13480,800,784
13485,790,783
13490,795,779
13495,782,778
13500,778,766
13505,772,762
13510,772,766
13515,766,752
13520,762,752
13525,757,744
13530,765,742
13535,761,738
13540,752,737
13545,748,722
13550,754,724
13555,742,715
13560,752,710
13565,741,711
13570,753,706
13575,757,701
13580,756,695
13585,765,689
13590,768,685
13595,762,686
13600,760,676
13605,775,676
13610,772,674
13615,776,667
13620,785,666
13625,800,662
13630,811,663
13635,810,657
13640,817,653
13645,820,653
13650,841,652
13655,844,649
13660,856,648
13665,866,650
13670,867,648
13675,879,645
13680,893,646
13685,902,647
13690,916,643
13695,931,651
13700,924,645
13705,934,648
13710,949,649
13715,964,655
13720,972,652
13725,981,660
13730,994,662
13735,1001,664
13740,1017,671
13745,1018,669
13750,1026,678
13755,1043,679
13760,1053,687
13765,1061,689
13770,1063,693
13775,1084,695
13780,1085,700
13785,1100,706
13790,1102,717
13795,1117,718
13800,1115,725
13805,1116,733
13810,1133,739
13815,1139,744
13820,1143,751
13825,1151,762
13830,1167,767
13835,1165,778
13840,1174,780
13845,1165,790
13850,1170,796
13855,1174,793
13860,1177,802
13865,1190,809
13870,1175,819
13875,1178,819
13880,1188,827
13885,1183,834
13890,1190,837
13895,1183,842
13900,1196,854
13905,1190,859
13910,1191,860
13915,1179,867
13920,1177,866
13925,1191,874
13930,1181,883
13935,1180,876
13940,1177,888
13945,1177,890
13950,1168,892
13955,1169,898
13960,1163,897
13965,1164,903
13970,1162,901
13975,1157,907
13980,1157,909
13985,1154,904
13990,1152,908
13995,1156,911
14000,1147,915
14005,1143,914
14010,1150,914
14015,1138,910
14020,1140,912
14025,1135,911
14030,1129,918
14035,1116,915
14040,1122,908
14045,1118,917
14050,1125,909
14055,1118,910
14060,1115,906
14065,1118,905
14070,1112,906
14075,1105,907
14080,1106,905
14085,1100,901
14090,1104,899
14095,1094,902
14100,1098,895
14105,1089,895
14110,1091,897
14115,1093,891
14120,1096,896
14125,1084,885
14130,1088,886
14135,1084,889
14140,1076,882
14145,1075,882
14150,1085,879
14155,1069,885
14160,1075,872
14165,1069,875
14170,1069,872
14175,1074,866
14180,1066,871
14185,1063,868
14190,1057,866
14195,1045,872
14200,1057,867
14205,1047,863
14210,1044,863
14215,1042,870
14220,1030,862
14225,1036,859
14230,1024,856
14235,1013,857
14240,1020,854
14245,1018,855
14250,1006,854
14255,1006,852
14260,993,850
14265,983,848
14270,985,848
14275,988,853
14280,970,844
14285,965,850
14290,952,843
14295,950,841
14300,939,839
14305,928,830
14310,925,832
14315,925,831
14320,914,834
14325,906,823
14330,883,824
14335,887,824
14340,878,822
14345,866,819
14350,867,818
14355,855,817
14360,844,808
14365,838,806
14370,831,805
14375,825,806
14380,820,805
14385,812,794
14390,806,792
14395,796,788
14400,797,784
14405,795,781
14410,779,779
14415,787,773
14420,775,768
14425,762,758
14430,770,762
14435,762,756
14440,762,750
14445,756,744
14450,750,741
14455,753,736
14460,756,733
14465,750,728
14470,753,716
14475,758,712
14480,752,706
14485,748,711
14490,749,697
14495,756,699
14500,760,698
14505,753,694
14510,765,689
14515,764,683
14520,772,672
14525,781,672
14530,777,673
14535,781,665
14540,791,665
14545,805,656
14550,803,658
14555,808,654
14560,821,659
14565,826,650
14570,838,649
14575,852,647
14580,854,649
14585,867,651
14590,871,643
14595,887,643
14600,898,648
14605,904,644
14610,909,650
14615,922,646
14620,946,647
14625,946,652
14630,957,651
14635,968,653
14640,979,660
14645,983,659
14650,1002,668
14655,1007,664
14660,1009,666
14665,1034,672
14670,1037,681
14675,1038,683
14680,1062,688
14685,1060,691
14690,1082,700
14695,1082,703
14700,1096,712
14705,1104,717
14710,1106,722
14715,1125,725
14720,1125,731
14725,1129,738
14730,1136,744
14735,1146,746
14740,1145,757
14745,1160,764
14750,1160,769
14755,1158,782
14760,1164,785
14765,1171,787
14770,1172,795
14775,1177,800
14780,1184,804
14785,1182,814
14790,1178,815
14795,1183,827
14800,1187,827
14805,1189,837
14810,1195,841
14815,1191,846
14820,1194,853
14825,1186,859
14830,1187,867
14835,1187,871
14840,1182,875
14845,1178,879
14850,1182,886
14855,1177,881
14860,1179,890
14865,1180,894
14870,1180,896
14875,1168,903
14880,1167,899
14885,1170,897
14890,1165,905
14895,1161,909
14900,1157,906
14905,1154,912
14910,1148,914
14915,1152,915
14920,1146,917
14925,1143,922
14930,1141,916
14935,1146,909
14940,1128,912
14945,1131,907
14950,1134,910
14955,1122,919
14960,1127,910
14965,1118,917
14970,1124,911
14975,1115,910
14980,1106,911
14985,1108,914
14990,1104,906
14995,1106,903
15000,1110,905
15005,1105,906
15010,1103,900
15015,1107,903
15020,1098,900
15025,1099,895
15030,1098,895
15035,1090,892
15040,1094,890
15045,1081,889
15050,1084,889
15055,1083,887
15060,1080,881
15065,1082,880
15070,1079,880
15075,1070,879
15080,1073,873
15085,1077,873
15090,1072,869
15095,1063,876
15100,1059,867
15105,1055,867
15110,1051,866
15115,1047,866
15120,1054,866
15125,1050,863
15130,1044,863
15135,1040,858
15140,1041,859
15145,1037,857
15150,1022,862
15155,1025,857
15160,1007,863
15165,1014,861
15170,1013,852
15175,1010,849
15180,1003,850
15185,977,848
15190,982,845
15195,967,848
15200,958,842
15205,957,846
15210,954,841
15215,944,839
15220,940,840
15225,929,840
15230,924,831
15235,920,830
15240,904,833
15245,901,830
15250,885,822
15255,887,821
15260,872,820
15265,863,817
15270,860,813
15275,853,812
15280,841,809
15285,836,809
15290,832,805
15295,828,805
15300,825,797
15305,801,797
15310,808,788
15315,798,786
15320,791,785
15325,781,774
15330,784,774
15335,775,767
15340,773,768
15345,774,763
15350,770,754
15355,762,745
15360,757,743
15365,747,741
15370,750,740
15375,756,730
15380,744,724
15385,742,722
15390,749,716
15395,745,709
15400,752,709
15405,752,705
15410,748,698
15415,737,692
15420,760,693
15425,763,682
15430,764,679
15435,774,680
15440,780,675
15445,778,670
15450,778,670
15455,794,663
15460,792,663
15465,808,657
15470,814,656
15475,821,655
15480,828,654
15485,838,654
15490,838,647
15495,854,644
15500,856,642
15505,880,643
15510,879,644
15515,890,645
15520,898,643
15525,909,649
15530,919,645
15535,937,653
15540,956,649
15545,948,655
15550,956,653
15555,970,652
15560,991,655
15565,995,660
15570,1008,664
15575,1018,664
15580,1020,678
15585,1028,676
15590,1051,678
15595,1056,681
15600,1066,688
15605,1067,692
15610,1075,696
15615,1088,706
15620,1090,713
15625,1121,719
15630,1108,724
15635,1125,729
15640,1131,734
15645,1140,745
15650,1147,749
15655,1154,753
15660,1153,762
15665,1160,761
15670,1168,770
15675,1164,778
15680,1170,788
15685,1170,794
15690,1183,803
15695,1187,807
15700,1177,813
15705,1178,823
15710,1182,821
15715,1181,827
15720,1188,833
15725,1190,842
15730,1184,842
15735,1187,852
15740,1189,852
15745,1192,862
15750,1185,870
15755,1183,869
15760,1181,873
15765,1181,885
15770,1176,880
15775,1187,890
15780,1175,893
15785,1172,895
15790,1171,897
15795,1170,902
15800,1174,900
15805,1168,904
15810,1159,906
15815,1158,905
15820,1150,912
15825,1150,914
15830,1148,913
15835,1147,915
15840,1147,913
15845,1130,921
15850,1144,914
15855,1134,912
15860,1133,918
15865,1134,913
15870,1129,919
15875,1125,915
15880,1115,910
15885,1118,909
15890,1109,910
15895,1117,912
15900,1111,908
15905,1110,908
15910,1105,901
15915,1113,906
15920,1103,906
15925,1106,901
15930,1109,893
15935,1102,897
15940,1107,901
15945,1095,891
15950,1093,891
15955,1086,890
15960,1090,888
15965,1095,892
15970,1087,883
15975,1081,882
15980,1082,883
15985,1080,879
15990,1070,881
15995,1069,878
16000,1063,870
16004,1070,880
16010,1061,873
16015,1069,868
16020,1058,868
16024,1054,866
16030,1049,869
16035,1049,864
16040,1056,862
16045,1050,857
16050,1038,861
16055,1040,857
16059,1032,859
16065,1031,856
16070,1023,855
16075,1019,857
16079,1015,851
16085,1014,851
16090,992,854
16094,999,852
16100,988,848
16105,977,852
16110,972,843
16114,962,848
16120,959,846
16125,947,849
16129,943,847
16135,941,842
16140,942,837
16145,935,837
16149,922,831
16155,900,826
16160,907,834
16165,903,826
16170,883,827
16175,880,828
16180,877,816
16184,864,822
16190,864,812
16195,850,812
16200,848,814
16204,830,805
16210,830,795
16215,819,796
16219,805,802
16225,804,788
16230,794,787
16235,795,780
16239,778,778
16245,782,770
16250,786,769
16254,763,767
16260,770,764
16265,760,754
16270,766,750
16274,756,747
16280,752,745
16285,751,738
16290,750,733
16295,751,730
16300,744,720
16305,743,725
16309,752,711
16315,753,709
16320,753,704
16325,756,701
16329,751,694
16335,751,690
16340,758,683
16344,767,680
16350,773,680
16355,766,677
16360,775,668
16364,792,671
16370,784,664
16375,796,660
16379,801,658
16385,811,657
16390,819,654
16395,823,652
16400,829,651
16405,848,651
16410,839,647
16415,855,642
16420,867,650
16425,883,641
16430,885,639
16435,903,644
16440,909,646
16445,904,647
16450,927,646
16455,944,651
16460,946,652
16465,962,654
16470,976,655
16475,976,660
16480,987,661
16485,1003,665
16490,1020,668
16495,1023,668
16500,1038,677
16505,1045,682
16510,1057,683
16515,1059,686
16520,1068,699
16525,1085,705
16530,1094,705
16535,1099,707
16540,1103,715
16545,1111,717
16550,1119,727
16555,1130,731
16560,1133,740
16565,1138,744
16570,1145,750
16575,1149,759
16580,1157,758
16585,1152,771
16590,1168,773
16595,1160,786
16600,1161,790
16605,1186,795
16610,1181,800
16615,1185,807
16620,1180,813
16625,1182,824
16630,1190,827
16635,1197,833
16640,1188,844
16645,1184,844
16650,1197,849
16655,1188,857
16660,1190,868
16665,1184,865
16670,1182,873
16675,1180,875
16680,1185,879
16685,1178,879
16690,1179,881
16695,1174,894
16700,1173,893
16705,1180,896
16710,1170,902
16715,1173,906
16720,1170,903
16725,1167,905
16730,1158,904
16735,1156,913
16740,1151,909
16745,1155,916
16750,1148,912
16755,1137,910
16760,1152,914
16765,1147,917
16770,1140,917
16775,1138,910
16780,1129,914
16785,1129,917
16790,1121,915
16795,1123,906
16800,1124,918
16805,1116,914
16810,1119,904
16815,1113,910
16820,1108,911
16825,1111,908
16830,1105,904
16835,1107,903
16840,1112,903
16845,1093,897
16850,1098,899
16855,1100,900
16860,1100,895
16865,1089,888
16870,1090,893
16875,1094,894
16880,1093,888
16885,1093,888
16890,1080,884
16895,1091,876
16900,1086,880
16905,1071,878
16910,1086,877
16915,1079,875
16920,1075,876
16925,1068,874
16930,1058,875
16935,1059,872
16940,1067,874
16945,1056,867
16950,1064,862
16955,1042,858
16960,1049,865
16965,1040,866
16970,1034,863
16975,1040,858
16980,1034,859
16985,1027,852
16990,1017,855
16995,1015,854
17000,1006,855
17005,997,858
17010,997,854
17015,993,849
17020,994,852
17025,973,843
17030,971,848
17035,968,846
17040,958,844
17045,950,843
17050,945,840
17055,929,839
17060,931,833
17065,931,840
17070,914,832
17075,906,832
17080,902,831
17085,886,825
17090,890,824
17095,869,821
17100,859,823
17105,858,816
17110,850,814
17115,837,810
17120,840,812
17125,827,805
17130,818,800
17135,813,799
17140,812,788
17145,804,791
17150,793,786
17155,786,782
17160,792,776
17165,780,773
17170,766,774
17175,768,769
17180,751,758
17185,753,753
17190,756,751
17195,754,747
17200,752,748
17205,747,738
17210,748,727
17215,749,724
17220,753,717
17225,752,713
17230,753,712
17235,749,705
17240,751,704
17245,753,697
17250,749,693
17255,749,687
17260,763,684
17265,767,678
17270,770,678
17275,768,671
17280,787,662
17285,781,665
17290,789,663
17295,798,656
17300,805,656
17305,814,659
17310,816,653
17315,834,652
17320,841,647
17325,838,653
17330,852,653
17335,855,647
17340,873,647
17345,881,645
17350,892,651
17355,908,648
17360,921,649
17365,930,646
17370,937,648
17375,952,644
17380,957,654
17385,956,655
17390,978,663
17395,987,657
17400,995,662
17405,1012,668
17410,1019,663
17415,1026,668
17420,1035,680
17425,1047,686
17430,1060,687
17435,1064,699
17440,1073,694
17445,1086,702
17450,1088,708
17455,1100,708
17460,1107,719
17465,1118,727
17470,1123,728
17475,1133,729
17480,1132,745
17485,1144,748
17490,1147,756
17495,1151,763
17500,1150,772
17505,1165,775
17510,1165,778
17515,1177,791
17520,1166,793
17525,1175,800
17530,1172,811
17535,1179,814
17540,1188,825
17545,1186,822
17550,1178,833
17555,1183,838
17560,1187,842
17565,1175,847
17570,1192,848
17575,1192,858
17580,1194,866
17585,1185,867
17590,1186,872
17595,1183,878
17600,1192,881
17605,1183,884
17610,1181,897
17615,1177,883
17620,1180,899
17625,1169,902
17630,1178,904
17635,1169,904
17640,1158,903
17645,1158,912
17650,1164,905
17655,1163,909
17660,1156,910
17665,1151,912
17670,1144,910
17675,1136,911
17680,1137,917
17685,1140,914
17690,1128,914
17695,1139,915
17700,1133,918
17705,1127,913
17710,1118,913
17715,1122,915
17720,1117,913
17725,1109,914
17730,1106,910
17735,1110,905
17740,1115,906
17745,1107,910
17750,1106,902
17755,1120,900
17760,1101,895
17765,1099,901
17770,1096,898
17775,1103,898
17780,1090,890
17785,1095,890
17790,1082,886
17795,1098,890
17800,1081,885
17805,1081,880
17810,1075,884
17815,1077,881
17820,1077,879
17825,1076,879
17830,1073,875
17835,1067,873
17840,1072,872
17845,1060,871
17850,1063,873
17855,1064,867
17860,1061,868
17865,1054,867
17870,1047,859
17875,1046,862
17880,1053,859
17885,1033,865
17890,1024,862
17895,1034,855
17900,1017,862
17905,1023,852
17910,1018,851
17915,1011,849
17920,1007,858
17925,996,851
17930,988,854
17935,987,851
17940,975,847
17945,974,851
17950,964,845
17955,975,843
17960,946,838
17965,946,837
17970,936,839
17975,925,837
17980,915,834
17985,921,839
17990,905,833
17995,908,831
18000,889,827
18005,889,826
18010,875,822
18015,869,818
18020,863,818
18025,854,812
18030,850,813
18035,833,808
18040,827,806
18045,829,802
18050,812,797
18055,806,796
18060,802,788
18065,800,784
18070,789,780
18075,783,775
18080,776,775
18085,777,771
18090,779,764
18095,767,757
18100,766,753
18105,757,748
18110,761,745
18115,757,737
18120,757,733
18125,740,726
18130,742,725
18135,745,721
18140,748,718
18145,749,716
18150,742,712
18155,741,711
18160,752,700
18165,747,698
18170,751,693
18175,755,684
18180,769,679
18185,758,678
18190,774,672
18195,774,667
18200,783,664
18205,781,664
18210,803,659
18215,805,659
18220,810,653
18225,816,654
18230,826,653
18235,822,653
18240,843,646
18245,842,647
18250,860,651
18255,870,647
18260,886,645
18265,885,641
18270,902,644
18275,899,651
18280,922,647
18285,935,651
18290,943,647
18295,948,652
18300,959,654
18305,970,652
18310,992,658
18315,993,665
18320,1004,665
18325,1009,667
18330,1017,670
18335,1032,681
18340,1042,683
18345,1052,689
18350,1058,690
18355,1072,691
18360,1079,701
18365,1091,709
18370,1104,712
18375,1096,716
18380,1116,721
18385,1115,730
18390,1131,735
18395,1135,741
18400,1147,748
18405,1153,744
18410,1152,763
18415,1156,768
18420,1161,775
18425,1167,778
18430,1172,780
18435,1178,792
18440,1179,801
18445,1183,808
18450,1182,814
18455,1175,824
18460,1183,820
18465,1183,828
18470,1188,837
18475,1186,841
18480,1187,843
18485,1192,853
18490,1193,856
18495,1177,859
18500,1189,870
18505,1185,871
18510,1178,876
18515,1176,874
18520,1182,885
18525,1179,886
18530,1176,890
18535,1166,891
18540,1174,894
18545,1167,901
18550,1167,892
18555,1167,904
18560,1152,912
18565,1153,906
18570,1139,911
18575,1162,903
18580,1148,913
18585,1142,918
18590,1139,917
18595,1151,913
18600,1138,919
18605,1137,917
18610,1125,916
18615,1126,916
18620,1132,918
18625,1125,910
18630,1121,915
18635,1118,913
18640,1121,907
18645,1117,908
18650,1111,909
18655,1104,903
18660,1115,907
18665,1097,907
18670,1101,905
18675,1094,906
18680,1100,900
18685,1094,894
18690,1097,897
18695,1100,891
18700,1095,890
18705,1090,897
18710,1086,889
18715,1093,887
18720,1081,884
18725,1080,885
18730,1084,884
18735,1075,877
18740,1083,879
18745,1080,881
18750,1074,876
18755,1067,879
18760,1065,874
18765,1061,870
18770,1056,870
18775,1055,873
18780,1049,870
18785,1060,863
18790,1047,861
18795,1044,865
18800,1043,866
18805,1041,860
18810,1032,858
18815,1032,857
18820,1030,857
18825,1018,851
18830,1005,855
18835,1006,860
18840,1012,849
18845,1001,855
18850,986,847
18855,979,849
18860,985,853
18865,969,849
18870,966,849
18875,953,843
18880,951,842
18885,942,839
18890,941,833
18895,933,832
18900,929,833
18905,908,833
18910,911,837
18915,895,832
18920,891,827
18925,887,822
18930,873,817
18935,861,819
18940,856,816
18945,846,809
18950,843,809
18955,837,804
18960,828,806
18965,821,802
18970,816,791
18975,810,794
18980,799,787
18985,791,787
18990,791,778
18995,795,771
19000,780,772
19005,774,769
19010,783,768
19015,767,762
19020,759,754
19025,762,746
19030,748,743
19035,755,740
19040,753,731
19045,746,730
19050,747,722
19055,746,721
19060,751,713
19065,752,708
19070,750,704
19075,751,697
19080,757,698
19085,752,691
19090,747,692
19095,760,687
19100,764,676
19105,777,676
19110,769,674
19115,787,669
19120,777,666
19125,798,665
19130,814,657
19135,809,656
19140,822,660
19145,822,653
19150,825,651
19155,837,648
19160,848,651
19165,859,649
19170,863,639
19175,878,645
19180,882,646
19185,896,648
19190,903,638
19195,926,648
19200,921,649
19205,934,651
19210,942,655
19215,959,648
19220,979,652
19225,970,656
19230,992,665
19235,1000,663
19240,1017,668
19245,1020,671
19250,1030,674
19255,1048,676
19260,1053,684
19265,1051,687
19270,1069,698
19275,1079,698
19280,1083,700
19285,1093,707
19290,1109,712
19295,1108,721
19300,1118,730
19305,1123,728
19310,1123,735
19315,1133,744
19320,1137,755
19325,1156,755
19330,1152,763
19335,1167,768
19340,1163,771
19345,1176,780
19350,1175,791
19355,1183,792
19360,1179,799
19365,1179,803
19370,1182,813
19375,1196,820
19380,1187,826
19385,1193,833
19390,1185,838
19395,1199,843
19400,1185,853
19405,1177,857
19410,1184,857
19415,1189,862
19420,1180,875
19425,1188,869
19430,1181,877
19435,1183,880
19440,1174,886
19445,1179,891
19450,1174,890
19455,1173,893
19460,1167,900
19465,1168,900
19470,1172,905
19475,1163,903
19480,1159,912
19485,1153,909
19490,1153,910
19495,1149,912
19500,1140,913
19505,1148,913
19510,1145,918
19515,1140,918
19520,1142,912
19525,1130,922
19530,1135,916
19535,1132,914
19540,1127,914
19545,1121,910
19550,1124,911
19555,1120,913
19560,1106,908
19565,1118,909
19570,1108,903
19575,1108,902
19580,1106,903
19585,1111,903
19590,1103,905
19595,1098,904
19600,1101,902
19605,1098,893
19610,1096,896
19615,1097,902
19620,1087,895
19625,1082,888
19630,1081,889
19635,1087,887
19640,1089,887
19645,1080,886
19650,1071,880
19655,1072,880
19660,1079,878
19665,1072,874
19670,1074,874
19675,1072,872
19680,1065,872
19685,1065,869
19690,1059,873
19695,1049,865
19700,1055,869
19705,1050,866
19710,1042,863
19715,1050,862
19720,1038,858
19725,1025,860
19730,1028,858
19735,1029,861
19740,1013,854
19745,1012,855
19750,1006,850
19755,1005,852
19760,990,855
19765,979,854
19770,983,848
19775,984,845
19780,960,846
19785,963,846
19790,956,845
19795,951,841
19800,946,838
19805,938,837
19810,928,838
19815,923,834
19820,920,835
19825,907,828
19830,906,828
19835,892,829
19840,885,825
19845,870,820
19850,869,824
19855,862,816
19860,843,809
19865,853,811
19870,837,800
19875,829,801
19880,822,802
19885,822,796
19890,801,791
19895,806,795
19900,798,789
19905,785,777
19910,785,770
19915,774,773
19920,781,763
19925,769,758
19930,751,767
19935,766,756
19940,766,748
19945,748,748
19950,755,742
19955,753,737
19960,749,737
19965,745,724
19970,747,718
19975,747,721
19980,745,707
19985,741,709
19990,753,705
19995,746,700
20000,757,693
20005,755,684
20010,762,686
20015,766,679
20020,765,681
20025,767,682
20030,777,673
20035,778,665
20040,793,662
20045,798,661
20050,802,655
20055,803,653
20060,811,653
20065,817,651
20070,835,652
20075,846,649
20080,849,651
20085,865,650
20090,874,648
20095,877,645
20100,888,643
20105,906,643
20110,915,650
20115,936,647
20120,930,653
20125,942,652
20130,957,652
20135,969,651
20140,981,657
20145,975,663
20150,994,664
20155,1001,662
20160,1022,671
20165,1018,670
20170,1039,682
20175,1048,683
20180,1059,682
20185,1067,688
20190,1077,701
20195,1084,702
20200,1095,703
20205,1109,717
20210,1102,718
20215,1117,720
20220,1124,731
20225,1128,736
20230,1134,744
20235,1137,749
20240,1147,756
20245,1158,763
20250,1159,771
20255,1166,775
20260,1155,782
20265,1170,787
20270,1172,793
20275,1184,797
20280,1176,808
20285,1185,813
20290,1189,816
20295,1179,830
20300,1188,830
20305,1197,838
20310,1187,842
20315,1182,849
20320,1195,854
20325,1194,858
20330,1185,863
20335,1188,868
20340,1192,874
20345,1191,876
20350,1189,884
20355,1174,883
20360,1179,884
20365,1181,886
20370,1164,893
20375,1168,895
20380,1169,905
20385,1160,903
20390,1167,903
20395,1156,907
20400,1160,900
20405,1151,914
20410,1161,914
20415,1152,912
20420,1149,910
20425,1136,914
20430,1131,915
20435,1145,913
20440,1138,910
20445,1136,914
20450,1127,917
20455,1117,917
20460,1126,911
20465,1119,918
20470,1114,914
20475,1116,909
20480,1117,914
20485,1114,906
20490,1118,901
20495,1103,902
20500,1107,905
20505,1099,902
20510,1107,900
20515,1096,897
20520,1099,900
20525,1088,895
20530,1098,895
20535,1092,892
20540,1088,894
20545,1088,889
20550,1085,884
20555,1081,883
20560,1087,883
20565,1085,883
20570,1081,876
20575,1071,873
20580,1074,876
20585,1072,874
20590,1068,874
20595,1076,877
20600,1064,871
20605,1068,873
20610,1054,868
20615,1056,871
20620,1051,863
20625,1043,864
20630,1048,862
20635,1045,860
20640,1038,861
20645,1036,857
20650,1030,856
20655,1019,858
20660,1023,851
20665,1014,855
20670,1001,854
20675,1004,861
20680,992,850
20685,982,856
20690,977,854
20695,973,850
20700,972,843
20705,956,849
20710,959,847
20715,945,842
20720,938,840
20725,929,844
20730,918,836
20735,917,835
20740,909,832
20745,898,826
20750,892,829
20755,883,829
20760,885,823
20765,866,814
20770,852,816
20775,857,820
20780,848,809
20785,842,811
20790,831,805
20795,821,803
20800,817,799
20805,803,790
20810,802,798
20815,803,786
20820,791,785
20825,786,782
20830,771,772
20835,778,768
20840,778,765
20845,770,760
20850,766,758
20855,755,749
20860,757,746
20865,756,742
20870,753,741
20875,753,727
20880,752,726
20885,753,724
20890,749,720
20895,749,712
20900,744,709
20905,745,705
20910,755,703
20915,751,695
20920,759,688
20925,757,688
20930,774,678
20935,758,681
20940,769,671
20945,774,674
20950,784,670
20955,782,665
20960,792,667
20965,803,663
20970,806,657
20975,814,650
20980,818,651
20985,825,656
20990,841,658
20995,852,644
21000,858,650
21005,871,643
21010,875,642
21015,884,643
21020,897,647
21025,895,644
21030,912,647
21035,928,649
21040,936,651
21045,945,653
21050,961,653
21055,976,654
21060,978,655
21065,990,656
21070,1006,666
21075,1013,670
21080,1018,669
21085,1026,672
21090,1044,684
21095,1063,680
21100,1063,689
21105,1073,692
21110,1076,696
21115,1090,702
21120,1093,707
21125,1105,717
21130,1112,726
21135,1127,728
21140,1127,736
21145,1136,742
21150,1144,740
21155,1146,746
21160,1153,753
21165,1161,771
21170,1160,772
21175,1157,777
21180,1166,781
21185,1178,798
21190,1174,799
21195,1183,801
21200,1172,810
21205,1190,820
21210,1183,822
21215,1185,830
21220,1195,832
21225,1190,838
21230,1192,846
21235,1192,848
21240,1176,863
21245,1194,865
21250,1180,866
21255,1186,870
21260,1191,873
21265,1183,879
21270,1183,882
21275,1174,886
21280,1177,894
21285,1181,894
21290,1175,896
21295,1172,902
21300,1162,895
21305,1162,908
21310,1159,910
21315,1162,910
21320,1154,911
21325,1156,909
21330,1149,911
21335,1150,916
21340,1143,918
21345,1142,924
21350,1135,917
21355,1140,916
21360,1133,915
21365,1133,916
21370,1132,912
21375,1130,915
21380,1123,910
21385,1125,911
21390,1121,910
21395,1110,910
21400,1113,905
21405,1106,909
21410,1105,905
21415,1103,907
21420,1116,903
21425,1106,897
21430,1110,897
21435,1097,901
21440,1104,894
21445,1094,893
21450,1105,896
21455,1088,891
21460,1090,888
21465,1081,886
21470,1086,884
21475,1092,888
21480,1078,880
21485,1075,880
21490,1080,879
21495,1070,875
21500,1079,878
21505,1072,875
21510,1067,871
21515,1065,873
21520,1063,867
21525,1062,867
21530,1061,865
21535,1064,868
21540,1045,868
21545,1042,863
21550,1047,858
21555,1034,861
21560,1039,861
21565,1030,858
21570,1027,859
21575,1025,857
21580,1016,858
21585,1000,852
21590,1002,856
21595,998,848
21600,987,852
21605,991,849
21610,978,848
21615,974,846
21620,962,846
21625,957,842
21630,947,844
21635,940,837
21640,940,835
21645,927,833
21650,923,836
21655,910,836
21660,910,827
21665,889,832
21670,890,826
21675,885,824
21680,887,824
21685,864,818
21690,863,814
21695,845,813
21700,849,811
21705,838,805
21710,826,804
21715,820,800
21720,801,798
21725,812,795
21730,810,785
21735,795,786
21740,788,779
21745,782,774
21750,780,768
21755,776,773
21760,762,766
21765,772,760
21770,765,756
21775,756,750
21780,759,747
21785,756,735
21790,764,736
21795,753,734
21800,746,729
21805,752,718
21810,753,717
21815,743,709
21820,744,705
21825,750,701
21830,745,697
21835,757,692
21840,763,687
21845,762,684
21850,758,685
21855,776,679
21860,777,673
21865,784,672
21870,784,663
21875,790,665
21880,800,663
21885,800,661
21890,819,654
21895,820,654
21900,829,652
21905,833,651
21910,850,649
21915,846,648
21920,871,645
21925,873,647
21930,881,642
21935,890,646
21940,896,646
21945,913,644
21950,926,648
21955,939,647
21960,952,654
21965,956,653
21970,963,656
21975,978,657
21980,987,659
21985,996,666
21990,1016,669
21995,1028,673
22000,1032,675
22005,1037,676
22010,1052,677
22015,1058,689
22020,1067,697
22025,1071,695
22030,1093,706
22035,1081,710
22040,1108,715
22045,1117,718
22050,1120,727
22055,1122,726
22060,1128,734
22065,1135,742
22070,1147,752
22075,1150,746
22080,1149,764
22085,1162,771
22090,1164,777
22095,1167,783
22100,1165,790
22105,1161,794
22110,1177,803
22115,1168,810
22120,1191,815
22125,1186,817
22130,1179,824
22135,1183,832
22140,1191,837
22145,1191,846
22150,1198,848
22155,1187,850
22160,1191,862
22165,1185,863
22170,1186,861
22175,1191,869
22180,1182,878
22185,1178,883
22190,1177,883
22195,1181,888
22200,1173,888
22205,1178,901
22210,1173,898
22215,1166,907
22220,1172,908
22225,1164,903
22230,1148,903
22235,1165,905
22240,1157,911
22245,1144,919
22250,1145,911
22255,1155,908
22260,1141,918
22265,1143,916
22270,1137,915
22275,1149,912
22280,1136,918
22285,1123,916
22290,1135,918
22295,1124,907
22300,1112,914
22305,1114,912
22310,1113,912
22315,1121,910
22320,1118,906
22325,1105,911
22330,1110,905
22335,1095,904
22340,1103,896
22345,1103,901
22350,1104,903
22355,1098,898
22360,1095,893
22365,1089,891
22370,1084,897
22375,1082,892
22380,1088,888
22385,1089,892
22390,1093,889
22395,1080,885
22400,1095,884
22405,1076,880
22410,1076,875
22415,1069,873
22420,1073,878
22425,1066,872
22430,1064,869
22435,1068,868
22440,1058,870
22445,1062,873
22450,1052,868
22455,1059,862
22460,1046,862
22465,1048,863
22470,1040,866
22475,1028,861
22480,1032,860
22485,1024,859
22490,1021,855
22495,1016,856
22500,1019,849
22505,994,852
22510,995,850
22515,984,843
22520,985,852
22525,977,848
22530,968,847
22535,963,845
22540,963,846
22545,956,842
22550,945,839
22555,932,842
22560,936,837
22565,927,835
22570,919,831
22575,913,833
22580,902,830
22585,897,824
22590,891,829
22595,880,829
22600,874,819
22605,866,815
22610,854,811
22615,843,818
22620,829,804
22625,830,810
22630,819,802
22635,816,797
22640,803,793
22645,807,789
22650,796,779
22655,786,784
22660,794,780
22665,788,773
22670,775,766
22675,773,768
22680,763,761
22685,762,754
22690,759,750
22695,761,744
22700,760,740
22705,757,742
22710,752,733
22715,757,725
22720,746,725
22725,746,712
22730,742,708
22735,754,714
22740,751,700
22745,749,694
22750,751,695
22755,759,689
22760,765,687
22765,766,679
22770,770,680
22775,768,672
22780,780,665
22785,784,667
22790,795,663
22795,801,658
22800,805,658
22805,809,655
22810,815,658
22815,827,653
22820,836,649
22825,844,649
22830,849,649
22835,858,642
22840,869,645
22845,880,640
22850,894,641
22855,908,644
22860,901,648
22865,920,649
22870,929,648
22875,949,654
22880,961,646
22885,958,658
22890,967,657
22895,977,653
22900,993,655
22905,1009,674
22910,1009,669
22915,1019,676
22920,1034,681
22925,1042,676
22930,1052,683
22935,1065,695
22940,1065,690
22945,1084,698
22950,1092,705
22955,1096,715
22960,1104,718
22965,1114,725
22970,1123,732
22975,1124,732
22980,1133,743
22985,1131,748
22990,1144,756
22995,1153,764
23000,1156,767
23005,1153,772
23010,1175,779
23015,1166,786
23020,1174,789
23025,1176,796
23030,1181,805
23035,1175,808
23040,1189,817
23045,1183,819
23050,1187,830
23055,1194,830
23060,1183,841
23065,1193,850
23070,1197,854
23075,1187,861
23080,1180,861
23085,1190,869
23090,1175,873
23095,1192,874
23100,1172,874
23105,1175,885
23110,1184,885
23115,1180,897
23120,1178,894
23125,1165,899
23130,1169,897
23135,1171,897
23140,1166,910
23145,1162,912
23150,1156,909
23155,1151,918
23160,1158,909
23165,1153,912
23170,1156,912
23175,1147,915
23180,1146,913
23185,1132,916
23190,1140,915
23195,1128,919
23200,1128,917
23205,1122,912
23210,1131,910
23215,1118,912
23220,1117,912
23225,1109,912
23230,1119,910
23235,1109,907
23240,1103,908
23245,1107,906
23250,1108,905
23255,1111,901
23260,1099,900
23265,1098,899
23270,1098,901
23275,1099,900
23280,1099,896
23285,1096,891
23290,1097,888
23295,1086,891
23300,1088,887
23305,1087,885
23310,1074,883
23315,1084,884
23320,1084,882
23325,1085,883
23330,1075,872
23335,1073,870
23340,1064,875
23345,1074,873
23350,1066,871
23355,1063,873
23360,1052,871
23365,1062,865
23370,1053,872
23375,1061,867
23380,1043,860
23385,1045,862
23390,1030,857
23395,1035,866
23400,1031,852
23405,1028,858
23410,1018,854
23415,1008,855
23420,1002,853
23425,998,857
23430,995,854
23435,996,851
23440,986,853
23445,981,843
23450,973,840
23455,960,845
23460,954,843
23465,943,850
23470,936,846
23475,937,843
23480,922,837
23485,918,839
23490,918,833
23495,896,829
23500,892,831
23505,892,831
23510,878,823
23515,868,820
23520,865,819
23525,860,815
23530,842,813
23535,840,814
23540,836,806
23545,833,800
23550,821,798
23555,814,794
23560,804,799
23565,800,788
23570,792,783
23575,790,781
23580,786,777
23585,777,774
23590,771,766
23595,775,764
23600,764,760
23605,760,751
23610,762,747
23615,747,745
23620,753,739
23625,757,732
23630,744,730
23635,742,728
23640,749,720
23645,746,710
23650,757,707
23655,741,708
23660,744,701
23665,753,699
23670,766,695
23675,757,690
23680,759,685
23685,763,683
23690,767,680
23695,776,671
23700,784,665
23705,783,666
23710,796,665
23715,800,662
23720,803,656
23725,820,655
23730,814,657
23735,827,650
23740,841,654
23745,844,650
23750,846,644
23755,869,644
23760,880,650
23765,885,646
23770,897,648
23775,909,647
23780,904,646
23785,916,648
23790,931,651
23795,951,653
23800,960,651
23805,965,655
23810,978,657
23815,991,662
23820,998,665
23825,1006,676
23830,1020,672
23835,1029,675
23840,1044,677
23845,1045,683
23850,1063,692
23855,1076,692
23860,1072,698
23865,1088,701
23870,1099,704
23875,1098,712
23880,1110,720
23885,1113,728
23890,1121,728
23895,1126,742
23900,1132,745
23905,1139,750
23910,1141,760
23915,1161,759
23920,1157,773
23925,1163,781
23930,1171,782
23935,1167,789
23940,1169,800
23945,1177,799
23950,1182,814
23955,1185,811
23960,1185,821
23965,1191,828
23970,1183,832
23975,1185,836
23980,1189,845
23985,1187,851
23990,1183,858
23995,1183,861
24000,1190,861
24005,1186,865
24010,1190,877
24015,1183,877
24020,1188,881
24025,1178,885
24030,1170,890
24035,1171,896
24040,1173,902
24045,1173,903
24050,1161,904
24055,1170,904
24060,1173,900
24065,1153,908
24070,1160,908
24075,1155,909
24080,1149,909
24085,1137,910
24090,1150,918
24095,1147,912
24100,1143,918
24105,1129,915
24110,1132,920
24115,1131,916
24120,1129,914
24125,1123,918
24130,1129,917
24135,1119,917
24140,1114,910
24145,1114,910
24150,1115,910
24155,1114,907
24160,1107,904
24165,1108,907
24170,1105,902
24175,1093,900
24180,1098,901
24185,1096,896
24190,1105,901
24195,1101,898
24200,1087,896
24205,1094,889
24210,1084,896
24215,1096,887
24220,1085,888
24225,1083,886
24230,1081,880
24235,1085,880
24240,1078,881
24245,1080,879
24250,1068,875
24255,1074,873
24260,1067,872
24265,1058,868
24270,1059,867
24275,1055,870
24280,1062,862
24285,1051,866
24290,1048,866
24295,1046,854
24300,1041,862
24305,1030,863
24310,1040,861
24315,1032,858
24320,1022,864
24325,1024,858
24330,1010,851
24335,999,853
24340,1012,846
24345,999,854
24350,980,853
24355,984,848
24360,984,852
24365,964,845
24370,958,849
24375,958,844
24380,955,848
24385,940,846
24390,935,843
24395,931,835
24400,921,836
24405,917,833
24410,897,832
24415,890,832
24420,898,825
24425,883,820
24430,873,816
24435,862,817
24440,861,816
24445,859,813
24450,844,809
24455,839,808
24460,833,805
24465,834,801
24470,816,793
24475,811,797
24480,796,787
24485,806,785
24490,792,784
24495,787,775
24500,776,773
24505,780,770
24510,765,763
24515,768,755
24520,760,754
24525,753,751
24530,754,743
24535,746,740
24540,737,731
24545,744,722
24550,741,726
24555,742,725
24560,745,720
24565,745,710
24570,750,705
24575,748,705
24580,747,698
24585,756,695
24590,753,690
24595,763,685
24600,767,681
24605,759,679
24610,771,679
24615,780,667
24620,787,666
24625,787,662
24630,802,665
24635,797,661
24640,807,658
24645,816,654
24650,826,646
24655,843,649
24660,845,649
24665,864,644
24670,858,641
24675,877,647
24680,889,641
24685,882,641
24690,898,647
24695,909,646
24700,924,652
24705,939,648
24710,947,651
24715,952,653
24720,972,653
24725,976,664
24730,984,658
24735,998,663
24740,1007,670
24745,1016,669
24750,1028,670
24755,1030,684
24760,1048,678
24765,1050,685
24770,1070,692
24775,1076,691
24780,1087,698
24785,1095,708
24790,1101,711
24795,1109,717
24800,1122,726
24805,1128,727
24810,1133,738
24815,1137,741
24820,1137,748
24825,1145,755
24830,1153,759
24835,1150,767
24840,1172,774
24845,1179,779
24850,1167,788
24855,1171,790
24860,1181,796
24865,1169,802
24870,1188,811
24875,1179,819
24880,1186,826
24885,1190,827
24890,1191,835
24895,1190,843
24900,1197,847
24905,1190,846
24910,1186,855
24915,1187,867
24920,1186,872
24925,1177,871
24930,1184,874
24935,1174,888
24940,1181,888
24945,1167,885
24950,1186,895
24955,1174,894
24960,1168,903
24965,1168,894
24970,1163,900
24975,1155,908
24980,1163,903
24985,1155,908
24990,1148,917
24995,1155,909
25000,1156,916
25005,1147,913
25010,1145,914
25015,1139,916
25020,1138,922
25025,1131,919
25030,1134,916
25035,1131,913
25040,1132,910
25045,1126,915
25050,1130,914
25055,1106,917
25060,1119,914
25065,1118,911
25070,1107,910
25075,1120,905
25080,1107,899
25085,1113,904
25090,1111,899
25095,1102,901
25100,1100,898
25105,1102,899
25110,1092,894
25115,1097,898
25120,1085,898
25125,1090,890
25130,1085,891
25135,1091,892
25140,1083,887
25145,1080,880
25150,1082,883
25155,1083,882
25160,1081,887
25165,1075,878
25170,1069,874
25175,1073,876
25180,1062,871
25185,1068,869
25190,1064,867
25195,1057,872
25200,1054,864
25205,1052,869
25210,1047,867
25215,1042,862
25220,1039,859
25225,1040,861
25230,1035,855
25235,1034,862
25240,1025,858
25245,1018,856
25250,1014,853
25255,1012,859
25260,1001,856
25265,995,848
25270,988,850
25275,991,851
25280,974,852
25285,972,843
25290,964,849
25295,952,840
25300,945,840
25305,939,841
25310,925,833
25315,922,836
25320,921,833
25325,913,840
25330,908,832
25335,892,830
25340,889,825
25345,878,820
25350,877,821
25355,862,820
25360,859,812
25365,840,807
25370,836,806
25375,838,815
25380,821,799
25385,825,803
25390,817,794
25395,805,787
25400,802,791
25405,805,787
25410,789,772
25415,788,771
25420,780,772
25425,773,764
25430,772,759
25435,766,754
25440,765,753
25445,758,748
25450,747,740
25455,758,734
25460,741,733
25465,747,728
25470,748,724
25475,748,720
25480,750,711
25485,739,715
25490,758,708
25495,757,703
25500,746,700
25505,754,689
25510,754,686
25515,764,690
25520,777,681
25525,768,675
25530,783,671
25535,787,674
25540,782,667
25545,799,664
25550,797,659
25555,809,658
25560,823,654
25565,826,651
25570,830,651
25575,839,650
25580,846,642
25585,860,648
25590,859,650
25595,885,643
25600,886,643
25605,884,647
25610,907,647
25615,924,648
25620,934,644
25625,948,649
25630,948,646
25635,967,653
25640,982,663
25645,985,657
25650,988,665
25655,1004,661
25660,1008,664
25665,1023,672
25670,1030,681
25675,1045,683
25680,1055,682
25685,1069,685
25690,1070,694
25695,1082,700
25700,1097,706
25705,1103,708
25710,1104,714
25715,1111,720
25720,1123,732
25725,1120,733
25730,1138,740
25735,1138,749
25740,1141,758
25745,1141,759
25750,1157,770
25755,1167,773
25760,1167,774
25765,1164,788
25770,1175,794
25775,1176,796
25780,1174,799
25785,1183,810
25790,1180,817
25795,1184,825
25800,1182,829
25805,1184,833
25810,1192,835
25815,1180,842
25820,1199,854
25825,1180,860
25830,1180,863
25835,1191,866
25840,1188,872
25845,1193,875
25850,1190,886
25855,1181,881
25860,1180,887
25865,1174,892
25870,1176,894
25875,1181,899
25880,1171,897
25885,1168,899
25890,1166,902
25895,1165,910
25900,1162,908
25905,1162,910
25910,1157,909
25915,1144,912
25920,1147,915
25925,1144,908
25930,1144,914
25935,1132,912
25940,1141,911
25945,1133,914
25950,1128,912
25955,1123,918
25960,1127,917
25965,1116,915
25970,1120,915
25975,1115,912
25980,1113,909
25985,1110,904
25990,1112,911
25995,1108,909
26000,1109,900
26005,1102,904
26010,1101,903
26015,1102,900
26020,1103,896
26025,1096,892
26030,1096,892
26035,1090,894
26040,1087,893
26045,1088,890
26050,1088,889
26055,1085,884
26060,1086,883
26065,1085,883
26070,1089,879
26075,1070,880
26080,1072,880
26085,1076,876
26090,1068,864
26095,1061,876
26100,1066,873
26105,1061,867
26110,1063,865
26115,1056,865
26120,1044,861
26125,1048,868
26130,1046,864
26135,1039,866
26140,1033,859
26145,1035,855
26150,1023,858
26155,1032,862
26160,1025,854
26165,1011,857
26170,1000,852
26175,1004,850
26180,1004,851
26185,984,849
26190,984,852
26195,972,851
26200,966,844
26205,961,846
26210,963,844
26215,942,844
26220,935,844
26225,935,840
26230,934,835
26235,924,839
26240,907,832
26245,906,834
26250,894,831
26255,886,822
26260,878,827
26265,873,822
26270,860,821
26275,858,815
26280,853,808
26285,845,812
26290,837,812
26295,824,802
26300,816,804
26305,820,793
26310,812,794
26315,796,786
26320,796,787
26325,785,775
26330,783,777
26335,777,771
26340,767,767
26345,772,759
26350,769,758
26355,766,750
26360,760,742
26365,752,744
26370,748,740
26375,743,741
26380,751,730
26385,743,719
26390,754,723
26395,745,718
26400,754,714
26405,757,708
26410,755,702
26415,749,696
26420,764,699
26425,756,689
26430,762,683
26435,763,677
26440,769,675
26445,771,665
26450,776,663
26455,786,664
26460,792,664
26465,797,658
26470,804,656
26475,805,661
26480,821,651
26485,833,656
26490,836,647
26495,845,645
26500,856,641
26505,872,645
26510,880,649
26515,886,652
26520,891,646
26525,910,646
26530,915,647
26535,921,648
26540,935,648
26545,949,651
26550,956,648
26555,970,652
26560,975,657
26565,982,654
26570,996,666
26575,1011,665
26580,1015,668
26585,1027,673
26590,1036,676
26595,1049,682
26600,1052,684
26605,1070,695
26610,1074,694
26615,1085,702
26620,1088,705
26625,1095,711
26630,1108,713
26635,1120,725
26640,1122,727
26645,1127,743
26650,1138,749
26655,1152,755
26660,1150,758
26665,1146,760
26670,1160,769
26675,1169,782
26680,1165,786
26685,1170,786
26690,1176,793
26695,1177,802
26700,1187,813
26705,1174,818
26710,1186,819
26715,1201,825
26720,1180,832
26725,1177,836
26730,1189,843
26735,1190,852
26740,1185,854
26745,1186,861
26750,1198,863
26755,1186,865
26760,1180,875
26765,1186,875
26770,1179,882
26775,1182,883
26780,1174,888
26785,1180,895
26790,1175,899
26795,1176,896
26800,1163,904
26805,1176,901
26810,1174,907
26815,1158,910
26820,1163,906
26825,1149,912
26830,1146,913
26835,1154,910
26840,1142,913
26845,1142,910
26850,1146,914
26855,1136,912
26860,1138,920
26865,1130,917
26870,1123,913
26875,1118,915
26880,1118,916
26885,1120,909
26890,1120,911
26895,1115,912
26900,1112,913
26905,1117,908
26910,1109,909
26915,1115,908
26920,1102,908
26925,1104,903
26930,1090,903
26935,1103,896
26940,1098,890
26945,1094,891
26950,1091,896
26955,1081,893
26960,1089,890
26965,1088,890
26970,1088,890
26975,1091,886
26980,1098,877
26985,1082,878
26990,1075,875
26995,1078,881
27000,1076,876
27005,1083,875
27010,1067,871
27015,1065,873
27020,1067,869
27025,1057,871
27030,1060,869
27035,1052,866
27040,1050,861
27045,1046,865
27050,1040,856
27055,1045,859
27060,1033,862
27065,1031,861
27070,1025,857
27075,1014,857
27080,1013,857
27085,1012,861
27090,1009,852
27095,1006,854
27100,991,851
27105,987,846
27110,971,849
27115,977,851
27120,965,843
27125,959,844
27130,957,843
27135,951,844
27140,935,834
27145,927,839
27150,922,834
27155,914,834
27160,902,829
27165,896,829
27170,901,829
27175,882,821
27180,881,822
27185,867,816
27190,864,816
27195,847,817
27200,849,808
27205,835,809
27210,825,810
27215,823,797
27220,819,800
27225,813,792
27230,809,788
27235,795,792
27240,787,783
27245,788,777
27250,780,771
27255,775,770
27260,767,760
27265,757,760
27270,766,757
27275,760,751
27280,761,746
27285,759,742
27290,750,739
27295,746,731
27300,747,728
27305,757,723
27310,748,713
27315,757,709
27320,746,706
27325,756,701
27330,752,703
27335,753,697
27340,756,692
27345,765,687
27350,756,682
27355,769,677
27360,776,676
27365,767,670
27370,790,669
27375,788,673
27380,785,654
27385,797,658
27390,811,656
27395,811,653
27400,829,653
27405,828,651
27410,838,653
27415,852,649
27420,858,645
27425,872,648
27430,869,640
27435,893,644
27440,904,646
27445,914,641
27450,924,644
27455,933,647
27460,938,651
27465,948,655
27470,967,649
27475,978,650
27480,985,664
27485,1002,666
27490,1001,665
27495,1009,669
27500,1023,672
27505,1030,681
27510,1046,681
27515,1052,688
27520,1067,687
27525,1073,698
27530,1074,696
27535,1097,708
27540,1093,712
27545,1103,716
27550,1114,731
27555,1118,731
27560,1135,734
27565,1136,739
27570,1129,751
27575,1144,752
27580,1150,758
27585,1170,766
27590,1166,770
27595,1167,782
27600,1169,790
27605,1173,791
27610,1175,797
27615,1177,804
27620,1180,818
27625,1185,817
27630,1182,819
27635,1181,829
27640,1191,835
27645,1185,839
27650,1193,850
27655,1189,856
27660,1185,859
27665,1185,864
27670,1193,868
27675,1185,868
27680,1182,875
27685,1185,880
27690,1181,881
27695,1168,886
27700,1174,894
27705,1180,890
27710,1178,900
27715,1167,895
27720,1165,904
27725,1172,906
27730,1151,906
27735,1165,908
27740,1156,914
27745,1156,913
27750,1149,908
27755,1149,915
27760,1146,917
27765,1143,919
27770,1139,917
27775,1136,921
27780,1133,909
27785,1130,916
27790,1133,913
27795,1121,913
27800,1129,910
27805,1118,907
27810,1117,911
27815,1116,906
27820,1108,905
27825,1113,908
27830,1105,911
27835,1112,909
27840,1104,901
27845,1113,899
27850,1100,903
27855,1095,895
27860,1102,891
27865,1090,893
27870,1101,889
27875,1080,893
27880,1087,889
27885,1085,884
27890,1080,887
27895,1089,882
27900,1085,882
27905,1080,879
27910,1075,889
27915,1080,877
27920,1077,872
27925,1068,874
27930,1071,873
27935,1055,866
27940,1064,868
27945,1064,868
27950,1049,870
27955,1048,866
27960,1054,868
27965,1044,868
27970,1050,863
27975,1037,857
27980,1035,861
27985,1026,856
27990,1020,853
27995,1014,860
28000,1013,859
28005,1006,852
28010,1007,853
28015,1000,851
28020,986,853
28025,986,846
28030,980,850
28035,964,844
28040,965,848
28045,955,841
28050,952,840
28055,946,835
28060,918,836
28065,927,834
28070,915,836
28075,910,836
28080,897,823
28085,886,829
28090,883,829
28095,880,819
28100,872,822
28105,864,817
28110,858,814
28115,859,811
28120,846,807
28125,837,803
28130,829,804
28135,825,809
28140,810,795
28145,812,791
28150,801,792
28155,793,780
28160,785,777
28165,782,775
28170,782,765
28175,771,767
28180,771,763
28185,770,758
28190,760,750
28195,760,745
28200,748,745
28205,759,735
28210,742,727
28215,752,732
28220,742,724
28225,750,716
28230,754,714
28235,750,707
28240,754,700
28245,753,701
28250,750,697
28255,756,691
28260,755,683
28265,758,684
28270,765,678
28275,779,673
28280,769,669
28285,778,669
28290,788,667
28295,805,662
28300,800,660
28305,811,658
28310,822,659
28315,832,657
28320,824,655
28325,842,648
28330,853,642
28335,863,644
28340,875,648
28345,871,642
28350,883,645
28355,906,647
28360,914,642
28365,921,646
28370,922,643
28375,938,650
28380,947,655
28385,964,653
28390,971,662
28395,977,653
28400,985,662
28405,1006,660
28410,1008,664
28415,1026,672
28420,1030,672
28425,1039,681
28430,1053,691
28435,1059,681
28440,1070,693
28445,1075,696
28450,1084,704
28455,1096,704
28460,1098,716
28465,1105,719
28470,1122,729
28475,1123,735
28480,1132,736
28485,1143,744
28490,1157,751
28495,1145,759
28500,1152,764
28505,1155,775
28510,1169,778
28515,1177,784
28520,1163,788
28525,1177,798
28530,1172,805
28535,1181,810
28540,1180,820
28545,1190,827
28550,1180,833
28555,1188,835
28560,1192,837
28565,1190,840
28570,1186,849
28575,1194,854
28580,1173,857
28585,1190,867
28590,1185,864
28595,1185,870
28600,1180,876
28605,1176,887
28610,1182,888
28615,1170,892
28620,1175,892
28625,1179,902
28630,1172,896
28635,1162,905
28640,1163,899
28645,1159,904
28650,1166,908
28655,1155,902
28660,1150,911
28665,1154,912
28670,1143,915
28675,1143,913
28680,1143,911
28685,1147,911
28690,1142,917
28695,1127,916
28700,1130,909
28705,1130,913
28710,1118,910
28715,1119,916
28720,1126,906
28725,1111,912
28730,1115,914
28735,1119,910
28740,1105,912
28745,1110,907
28750,1105,908
28755,1106,905
28760,1107,901
28765,1099,898
28770,1097,897
28775,1083,896
28780,1101,894
28785,1091,890
28790,1095,890
28795,1084,889
28800,1090,890
28805,1086,888
28810,1084,884
28815,1089,879
28820,1081,880
28825,1070,879
28830,1072,877
28835,1075,878
28840,1067,871
28845,1070,875
28850,1062,876
28855,1065,865
28860,1053,875
28865,1060,863
28870,1054,870
28875,1049,864
28880,1044,866
28885,1047,860
28890,1032,860
28895,1033,862
28900,1028,856
28905,1025,856
28910,1014,859
28915,1013,855
28920,1000,856
28925,1011,854
28930,982,849
28935,987,852
28940,981,847
28945,983,850
28950,971,847
28955,967,843
28960,956,840
28965,949,845
28970,957,839
28975,929,839
28980,939,835
28985,921,836
28990,914,830
28995,902,831
29000,895,830
29005,890,827
29010,888,829
29015,876,818
29020,869,817
29025,859,815
29030,847,816
29035,850,806
29040,844,806
29045,824,804
29050,825,798
29055,817,795
29060,815,792
29065,817,788
29070,795,789
29075,785,778
29080,786,779
29085,779,775
29090,775,766
29095,768,764
29100,765,762
29105,765,751
29110,759,751
29115,759,751
29120,751,744
29125,756,738
29130,758,724
29135,750,721
29140,745,720
29145,760,714
29150,745,712
29155,749,709
29160,752,703
29165,753,695
29170,753,691
29175,755,690
29180,753,686
29185,767,683
29190,774,673
29195,779,670
29200,775,673
29205,786,667
29210,792,664
29215,798,659
29220,808,661
29225,819,660
29230,821,656
29235,835,650
29240,830,651
29245,843,649
29250,855,643
29255,852,645
29260,883,644
29265,882,647
29270,886,642
29275,901,644
29280,910,655
29285,927,647
29290,934,648
29295,941,647
29300,958,654
29305,964,659
29310,984,652
29315,990,658
29320,999,658
29325,1000,669
29330,1020,671
29335,1035,671
29340,1041,677
29345,1047,682
29350,1060,689
29355,1072,695
29360,1070,698
29365,1087,705
29370,1090,703
29375,1099,712
29380,1109,719
29385,1122,717
29390,1121,725
29395,1125,735
29400,1147,740
29405,1145,746
29410,1145,756
29415,1146,758
29420,1164,771
29425,1165,774
29430,1165,780
29435,1178,784
29440,1171,795
29445,1166,797
29450,1187,807
29455,1176,815
29460,1189,821
29465,1180,823
29470,1180,833
29475,1179,836
29480,1199,842
29485,1180,851
29490,1200,852
29495,1191,857
29500,1190,861
29505,1183,872
29510,1185,874
29515,1182,878
29520,1186,882
29525,1175,888
29530,1180,885
29535,1182,882
29540,1173,892
29545,1179,902
29550,1170,903
29555,1168,903
29560,1169,909
29565,1164,906
29570,1154,902
29575,1154,916
29580,1153,909
29585,1143,914
29590,1151,919
29595,1141,916
29600,1146,913
29605,1133,918
29610,1129,916
29615,1143,913
29620,1132,912
29625,1125,918
29630,1125,912
29635,1125,911
29640,1119,912
29645,1124,908
29650,1109,907
29655,1114,913
29660,1118,908
29665,1107,906
29670,1106,899
29675,1110,904
29680,1098,901
29685,1102,899
29690,1098,898
29695,1100,898
29700,1095,897
29705,1091,888
29710,1095,898
29715,1084,888
29720,1086,886
29725,1085,887
29730,1081,883
29735,1073,886
29740,1086,882
29745,1067,877
29750,1064,874
29755,1072,877
29760,1064,878
29765,1074,871
29770,1067,869
29775,1053,868
29780,1058,870
29785,1056,868
29790,1050,865
29795,1052,862
29800,1035,865
29805,1037,859
29810,1035,856
29815,1030,858
29820,1022,854
29825,1016,854
29830,1017,857
29835,1011,854
29840,999,855
29845,991,855
29850,989,851
29855,985,853
29860,974,851
29865,967,850
29870,966,843
29875,954,840
29880,951,843
29885,952,842
29890,931,844
29895,923,837
29900,927,837
29905,915,839
29910,904,835
29915,891,829
29920,893,826
29925,897,827
29930,879,822
29935,873,821
29940,871,821
29945,843,813
29950,847,811
29955,833,809
29960,835,803
29965,829,799
29970,817,800
29975,822,794
29980,804,791
29985,798,784
29990,788,786
29995,788,777
30000,782,777
30005,772,765
30010,772,762
30015,775,758
30020,772,755
30025,762,750
30030,755,754
30035,748,742
30040,748,742
30045,753,732
30050,752,733
30055,741,721
30060,748,714
30065,746,710
30070,748,707
30075,759,699
30080,762,702
30085,753,694
30090,761,687
30095,755,689
30100,761,680
30105,767,679
30110,765,675
30115,778,669
30120,778,674
30125,787,666
30130,788,662
30135,804,662
30140,812,657
30145,816,649
30150,827,652
30155,832,643
30160,834,653
30165,842,651
30170,859,642
30175,879,641
30180,878,644
30185,908,641
30190,891,650
30195,899,646
30200,916,645
30205,933,647
30210,937,648
30215,951,653
30220,974,653
30225,974,664
30230,988,658
30235,993,667
30240,1003,661
30245,1016,666
30250,1019,666
30255,1029,677
30260,1051,679
30265,1049,681
30270,1059,697
30275,1072,687
30280,1086,699
30285,1086,703
30290,1092,710
30295,1100,714
30300,1105,722
30305,1123,728
30310,1125,731
30315,1125,742
30320,1141,746
30325,1144,753
30330,1143,760
30335,1160,763
30340,1167,772
30345,1180,780
30350,1173,780
30355,1171,784
30360,1181,797
30365,1183,804
30370,1176,814
30375,1191,815
30380,1184,823
30385,1187,825
30390,1189,841
30395,1184,845
30400,1186,847
30405,1179,848
30410,1193,856
30415,1187,862
30420,1190,867
30425,1183,877
30430,1190,871
30435,1192,880
30440,1174,883
30445,1176,890
30450,1175,893
30455,1169,893
30460,1175,905
30465,1167,903
30470,1169,901
30475,1168,900
30480,1159,904
30485,1162,910
30490,1157,914
30495,1147,910
30500,1152,904
30505,1141,910
30510,1134,912
30515,1138,917
30520,1139,915
30525,1135,914
30530,1135,920
30535,1124,913
30540,1132,920
30545,1135,913
30550,1114,912
30555,1131,913
30560,1120,912
30565,1118,911
30570,1120,907
30575,1113,908
30580,1107,909
30585,1107,904
30590,1106,902
30595,1099,897
30600,1103,898
30605,1094,891
30610,1096,903
30615,1086,891
30620,1088,893
30625,1090,894
30630,1084,886
30635,1089,891
30640,1074,885
30645,1076,882
30650,1080,879
30655,1078,877
30660,1070,882
30665,1065,872
30670,1069,873
30675,1073,875
30680,1064,872
30685,1058,875
30690,1062,867
30695,1062,869
30700,1066,867
30705,1052,865
30710,1047,868
30715,1049,860
30720,1040,860
30725,1032,861
30730,1035,857
30735,1029,862
30740,1019,856
30745,1022,856
30750,1012,855
30755,1022,857
30760,1003,854
30765,990,851
30770,991,853
30775,986,846
30780,979,850
30785,969,847
30790,965,845
30795,956,844
30800,947,842
30805,945,842
30810,938,836
30815,933,839
30820,928,833
30825,908,829
30830,896,830
30835,895,831
30840,891,820
30845,871,825
30850,875,823
30855,871,822
30860,862,818
30865,845,813
30870,842,810
30875,836,803
30880,830,804
30885,834,796
30890,807,796
30895,815,794
30900,794,789
30905,790,789
30910,784,777
30915,789,773
30920,778,773
30925,767,767
30930,779,768
30935,770,756
30940,756,754
30945,764,750
30950,755,740
30955,746,742
30960,752,727
30965,749,722
30970,758,726
30975,749,719
30980,744,713
30985,747,709
30990,745,705
30995,749,703
31000,749,694
31005,751,692
31010,753,692
31015,761,689
31020,767,679
31025,778,679
31030,781,670
31035,773,675
31040,783,667
31045,788,664
31050,796,666
31055,796,656
31060,807,659
31065,814,650
31070,830,648
31075,834,651
31080,849,644
31085,855,646
31090,875,646
31095,877,647
31100,873,641
31105,890,647
31110,897,649
31115,919,645
31120,920,640
31125,931,649
31130,937,648
31135,959,656
31140,972,653
31145,981,653
31150,990,660
31155,996,667
31160,1006,663
31165,1021,671
31170,1031,670
31175,1051,678
31180,1042,679
31185,1067,687
31190,1070,691
31195,1078,691
31200,1096,705
31205,1093,707
31210,1100,717
31215,1113,717
31220,1127,726
31225,1124,735
31230,1133,737
31235,1133,743
31240,1137,753
31245,1147,755
31250,1155,763
31255,1165,773
31260,1158,777
31265,1173,785
31270,1168,786
31275,1172,798
31280,1176,800
31285,1172,810
31290,1175,811
31295,1184,817
31300,1194,825
31305,1199,834
31310,1188,838
31315,1184,844
31320,1181,850
31325,1191,858
31330,1187,861
31335,1192,867
31340,1183,871
31345,1184,875
31350,1181,880
31355,1182,881
31360,1178,890
31365,1171,884
31370,1168,891
31375,1174,888
31380,1171,898
31385,1173,902
31390,1160,902
31395,1159,902
31400,1157,911
31405,1162,910
31410,1148,910
31415,1144,911
31420,1146,915
31425,1138,912
31430,1137,921
31435,1132,916
31440,1136,912
31445,1126,914
31450,1130,916
31455,1129,914
31460,1126,914
31465,1119,915
31470,1109,907
31475,1118,905
31480,1110,909
31485,1114,909
31490,1116,912
31495,1109,904
31500,1097,904
31505,1114,907
31510,1102,903
31515,1106,905
31520,1100,902
31525,1099,895
31530,1105,893
31535,1095,892
31540,1096,889
31545,1093,889
31550,1086,887
31555,1089,884
31560,1081,887
31565,1086,886
31570,1079,885
31575,1070,883
31580,1076,877
31585,1070,875
31590,1075,872
31595,1076,869
31600,1063,867
31605,1059,877
31610,1059,865
31615,1058,872
31620,1054,863
31625,1047,866
31630,1045,861
31635,1041,865
31640,1032,868
31645,1040,858
31650,1027,857
31655,1027,857
31660,1021,857
31665,1012,854
31670,1003,851
31675,1005,851
31680,1001,859
31685,994,849
31690,979,851
31695,981,849
31700,966,846
31705,963,843
31710,963,843
31715,953,844
31720,943,840
31725,934,838
31730,929,842
31735,918,840
31740,914,834
31745,910,832
31750,895,831
31755,901,825
31760,886,823
31765,868,826
31770,864,819
31775,872,820
31780,850,814
31785,851,811
31790,832,807
31795,841,808
31800,836,806
31805,816,797
31810,804,796
31815,801,791
31820,794,786
31825,782,784
31830,784,782
31835,784,774
31840,778,761
31845,768,765
31850,759,762
31855,759,749
31860,756,754
31865,757,746
31870,750,743
31875,747,733
31880,749,734
31885,747,728
31890,754,725
31895,744,715
31900,752,709
31905,751,711
31910,739,703
31915,747,692
31920,756,696
31925,753,689
31930,761,691
31935,769,683
31940,764,682
31945,775,677
31950,774,672
31955,795,664
31960,779,665
31965,786,665
31970,799,662
31975,805,661
31980,818,655
31985,824,653
31990,833,652
31995,834,649
32000,839,650
32005,867,645
32009,863,648
32015,880,648
32020,896,645
32025,913,648
32030,913,648
32034,926,649
32040,923,642
32045,951,650
32049,955,653
32055,968,652
32060,977,654
32064,981,659
32070,984,669
32075,1006,664
32080,1016,665
32085,1022,669
32090,1023,676
32095,1041,679
32100,1055,684
32104,1067,691
32110,1078,694
32115,1088,697
32119,1093,705
32125,1100,716
32130,1107,717
32134,1109,717
32140,1127,727
32145,1129,731
32150,1131,741
32155,1133,747
32159,1154,752
32165,1150,763
32170,1161,773
32174,1165,774
32180,1171,778
32185,1175,786
32189,1167,796
32195,1172,798
32200,1174,811
32205,1190,811
32210,1179,822
32215,1188,830
32220,1192,830
32225,1183,835
32229,1179,840
32235,1195,849
32240,1182,852
32244,1180,856
32250,1183,870
32255,1179,868
32259,1185,873
32265,1178,876
32270,1177,883
32275,1170,885
32280,1178,886
32284,1163,888
32290,1173,902
32295,1170,896
32299,1170,901
32305,1163,906
32310,1164,903
32314,1157,907
32320,1160,912
32325,1144,917
32330,1146,917
32335,1140,911
32340,1154,913
32345,1150,916
32350,1140,910
32354,1138,914
32360,1132,913
32365,1137,912
32369,1122,916
32375,1129,914
32380,1120,907
32384,1119,919
32390,1120,914
32395,1111,914
32400,1117,902
32405,1115,908
32409,1117,902
32415,1107,906
32420,1103,907
32424,1109,904
32430,1093,901
32435,1096,902
32439,1095,900
32445,1093,900
32450,1096,892
32455,1092,895
32460,1085,900
32465,1090,887
32470,1089,880
32475,1090,883
32479,1095,882
32485,1082,880
32490,1082,881
32494,1083,880
32500,1077,875
32505,1070,877
32509,1078,871
32515,1067,873
32520,1063,867
32525,1065,867
32530,1064,873
32534,1056,867
32540,1048,867
32545,1041,865
32549,1045,861
32555,1041,859
32560,1031,858
32564,1030,861
32570,1029,853
32575,1029,862
32580,1011,868
32585,1011,857
32590,1006,854
32595,1003,856
32600,992,847
32604,990,855
32610,983,851
32615,975,850
32619,978,845
32625,954,845
32630,954,842
32634,942,845
32640,938,843
32645,925,833
32650,927,836
32655,924,833
32659,915,835
32665,892,838
32670,893,827
32674,890,823
32680,883,825
32685,866,825
32689,863,819
32695,856,816
32700,860,812
32705,834,812
32710,835,811
32715,832,805
32720,818,803
32725,816,800
32729,807,792
32735,794,785
32740,792,784
32744,783,778
32750,782,775
32755,776,767
32759,768,774
32765,761,757
32770,761,751
32775,755,753
32780,747,748
32785,754,743
32790,752,734
32795,754,741
32800,754,728
32805,752,726
32810,744,716
32815,750,714
32820,746,708
32825,752,708
32830,753,706
32835,746,694
32840,754,694
32845,763,689
32850,753,679
32855,757,681
32860,764,674
32865,778,678
32870,786,665
32875,794,666
32880,791,663
32885,804,661
32890,810,659
32895,816,655
32900,829,653
32905,838,655
32910,839,649
32915,847,653
32920,861,646
32925,865,649
32930,880,646
32935,885,647
32940,898,647
32945,911,649
32950,912,648
32955,918,649
32960,928,652
32965,948,652
32970,952,650
32975,974,654
32980,972,657
32985,1003,663
32990,1006,667
32995,1008,664
33000,1022,672
33005,1033,675
33010,1049,681
33015,1054,684
33020,1057,694
33025,1078,689
33030,1076,697
33035,1089,703
33040,1098,713
33045,1096,715
33050,1115,719
33055,1119,727
33060,1115,734
33065,1136,743
33070,1144,745
33075,1145,754
33080,1162,758
33085,1166,761
33090,1164,774
33095,1167,783
33100,1159,783
33105,1169,787
33110,1167,801
33115,1185,804
33120,1181,812
33125,1176,817
33130,1185,824
33135,1184,829
33140,1181,834
33145,1181,838
33150,1187,841
33155,1188,849
33160,1190,860
33165,1186,864
33170,1196,871
33175,1188,872
33180,1183,873
33185,1178,877
33190,1187,888
33195,1177,888
33200,1174,888
33205,1175,892
33210,1177,887
33215,1162,900
33220,1153,906
33225,1166,907
33230,1152,908
33235,1163,909
33240,1156,908
33245,1159,914
33250,1143,916
33255,1145,919
33260,1151,915
33265,1147,910
33270,1142,913
33275,1136,917
33280,1132,912
33285,1130,919
33290,1128,916
33295,1133,909
33300,1117,910
33305,1114,907
33310,1119,911
33315,1125,915
33320,1115,908
33325,1114,906
33330,1105,901
33335,1112,903
33340,1108,901
33345,1110,902
33350,1097,900
33355,1097,899
33360,1097,892
33365,1085,892
33370,1090,896
33375,1090,891
33380,1096,891
33385,1092,891
33390,1092,880
33395,1089,886
33400,1077,887
33405,1081,883
33410,1074,877
33415,1072,872
33420,1075,881
33425,1073,873
33430,1067,877
33435,1069,875
33440,1059,873
33445,1053,871
33450,1057,870
33455,1066,867
33460,1044,864
33465,1046,860
33470,1049,864
33475,1030,865
33480,1041,860
33485,1023,858
33490,1019,860
33495,1019,862
33500,1001,854
33505,1008,858
33510,1000,853
33515,993,855
33520,989,853
33525,984,850
33530,976,845
33535,977,844
33540,963,846
33545,963,848
33550,954,844
33555,945,838
33560,946,844
33565,933,840
33570,916,836
33575,913,834
33580,907,833
33585,905,824
33590,887,824
33595,892,824
33600,870,825
33605,865,821
33610,852,813
33615,857,816
33620,847,808
33625,833,813
33630,839,804
33635,825,802
33640,806,795
33645,813,792
33650,800,792
33655,789,787
33660,792,784
33665,778,776
33670,782,776
33675,782,766
33680,773,761
33685,768,758
33690,762,754
33695,760,750
33700,753,744
33705,755,740
33710,750,738
33715,752,731
33720,741,725
33725,754,721
33730,747,715
33735,751,709
33740,740,707
33745,757,704
33750,757,699
33755,750,696
33760,753,685
33765,756,688
33770,762,683
33775,764,678
33780,780,674
33785,786,673
33790,780,667
33795,790,667
33800,794,662
33805,813,655
33810,818,652
33815,822,650
33820,830,652
33825,837,650
33830,846,649
33835,849,646
33840,862,646
33845,872,646
33850,879,640
33855,893,642
33860,901,642
33865,913,647
33870,916,644
33875,938,652
33880,944,650
33885,957,650
33890,974,651
33895,983,658
33900,982,660
33905,997,663
33910,1010,663
33915,1014,669
33920,1027,675
33925,1039,681
33930,1054,681
33935,1061,690
33940,1066,691
33945,1075,697
33950,1091,700
33955,1089,712
33960,1100,715
33965,1112,719
33970,1112,725
33975,1120,731
33980,1135,735
33985,1132,739
33990,1144,746
33995,1152,760
34000,1155,757
34005,1160,770
34010,1168,776
34015,1160,784
34020,1177,786
34025,1180,798
34030,1175,803
34035,1181,810
34040,1188,811
34045,1188,826
34050,1187,828
34055,1182,833
34060,1194,839
34065,1183,842
34070,1191,847
34075,1182,848
34080,1190,859
34085,1190,863
34090,1187,864
34095,1181,876
34100,1175,875
34105,1179,880
34110,1177,881
34115,1176,891
34120,1176,890
34125,1171,892
34130,1165,894
34135,1165,898
34140,1166,902
34145,1165,903
34150,1168,908
34155,1162,907
34160,1151,908
34165,1151,914
34170,1154,912
34175,1151,916
34180,1140,915
34185,1140,909
34190,1131,915
34195,1137,910
34200,1134,913
34205,1130,917
34210,1131,912
34215,1128,916
34220,1123,916
34225,1121,909
34230,1112,908
34235,1120,904
34240,1112,908
34245,1109,909
34250,1112,905
34255,1108,907
34260,1102,905
34265,1115,897
34270,1102,899
34275,1100,896
34280,1100,897
34285,1094,889
34290,1084,893
34295,1084,888
34300,1082,888
34305,1086,892
34310,1081,886
34315,1076,881
34320,1076,882
34325,1075,883
34330,1076,878
34335,1076,878
34340,1074,876
34345,1069,875
34350,1056,875
34355,1063,875
34360,1063,868
34365,1063,868
34370,1046,861
34375,1049,864
34380,1048,861
34385,1038,866
34390,1035,859
34395,1037,861
34400,1023,861
34405,1021,856
34410,1020,854
34415,1019,856
34420,1021,862
34425,1011,851
34430,992,850
34435,991,848
34440,979,848
34445,988,852
34450,981,846
34455,967,843
34460,964,843
34465,950,840
34470,948,856
34475,932,842
34480,934,838
34485,918,837
34490,920,836
34495,905,828
34500,901,830
34505,895,825
34510,885,821
34515,883,825
34520,875,818
34525,871,821
34530,850,813
34535,849,808
34540,835,804
34545,838,804
34550,832,802
34555,819,793
34560,817,790
34565,813,789
34570,796,783
34575,802,781
34580,781,774
34585,788,773
34590,777,770
34595,775,762
34600,770,754
34605,763,753
34610,759,749
34615,758,746
34620,751,738
34625,755,737
34630,756,732
34635,746,727
34640,745,722
34645,748,712
34650,744,716
34655,743,712
34660,746,703
34665,753,698
34670,755,699
34675,755,690
34680,758,683
34685,762,680
34690,774,681
34695,775,673
34700,777,665
34705,790,664
34710,773,658
34715,789,663
34720,808,657
34725,814,649
34730,810,652
34735,818,648
34740,824,651
34745,844,646
34750,851,647
34755,860,646
34760,852,651
34765,894,651
34770,890,640
34775,900,650
34780,910,646
34785,914,647
34790,931,653
34795,940,650
34800,955,651
34805,974,655
34810,967,657
34815,990,656
34820,998,668
34825,1008,663
34830,1018,669
34835,1024,672
34840,1036,675
34845,1043,679
34850,1056,688
34855,1065,687
34860,1072,694
34865,1087,701
34870,1088,708
34875,1100,713
34880,1104,709
34885,1108,716
34890,1124,729
34895,1131,737
34900,1134,738
34905,1144,746
34910,1151,753
34915,1155,759
34920,1160,765
34925,1153,778
34930,1161,780
34935,1178,781
34940,1173,788
34945,1178,796
34950,1180,804
34955,1184,810
34960,1190,815
34965,1189,822
34970,1190,821
34975,1187,834
34980,1189,842
34985,1188,845
34990,1195,851
34995,1186,851
35000,1185,856
35005,1194,869
35010,1175,872
35015,1181,877
35020,1181,879
35025,1189,881
35030,1181,883
35035,1181,890
35040,1175,895
35045,1171,898
35050,1165,901
35055,1159,903
35060,1166,903
35065,1165,909
35070,1149,907
35075,1163,912
35080,1156,911
35085,1139,913
35090,1140,914
35095,1138,910
35100,1147,917
35105,1138,911
35110,1140,912
35115,1124,913
35120,1135,913
35125,1129,921
35130,1123,912
35135,1125,916
35140,1123,914
35145,1114,910
35150,1108,908
35155,1118,912
35160,1110,910
35165,1112,911
35170,1114,911
35175,1098,905
35180,1100,905
35185,1103,899
35190,1100,899
35195,1099,898
35200,1086,891
35205,1099,894
35210,1086,890
35215,1091,890
35220,1092,891
35225,1085,888
35230,1080,882
35235,1083,886
35240,1089,882
35245,1084,879
35250,1082,870
35255,1074,873
35260,1068,875
35265,1068,873
35270,1073,871
35275,1053,869
35280,1053,865
35285,1056,874
35290,1050,867
35295,1046,866
35300,1041,863
35305,1046,857
35310,1026,863
35315,1033,856
35320,1028,856
35325,1025,857
35330,1014,858
35335,1019,852
35340,1010,853
35345,1000,851
35350,993,853
35355,993,850
35360,980,850
35365,973,852
35370,961,844
35375,960,848
35380,957,842
35385,944,839
35390,932,835
35395,933,840
35400,924,840
35405,915,836
35410,914,835
35415,904,832
35420,911,828
35425,885,826
35430,886,827
35435,872,821
35440,870,818
35445,848,815
35450,852,813
35455,843,810
35460,841,806
35465,830,804
35470,817,800
35475,814,793
35480,805,796
35485,803,797
35490,798,775
35495,795,784
35500,780,780
35505,787,771
35510,758,769
35515,774,758
35520,767,761
35525,760,751
35530,760,748
35535,749,745
35540,755,736
35545,746,735
35550,753,732
35555,750,723
35560,749,719
35565,749,718
35570,750,713
35575,750,709
35580,744,700
35585,743,692
35590,769,689
35595,758,685
35600,763,684
35605,762,677
35610,766,679
35615,770,671
35620,771,665
35625,789,663
35630,792,663
35635,795,658
35640,810,651
35645,814,653
35650,824,652
35655,832,653
35660,843,648
35665,840,642
35670,849,648
35675,851,650
35680,880,643
35685,891,645
35690,884,643
35695,908,642
35700,919,640
35705,927,654
35710,940,647
35715,952,655
35720,945,656
35725,962,655
35730,975,661
35735,998,661
35740,1000,660
35745,1007,665
35750,1017,669
35755,1028,677
35760,1034,678
35765,1045,681
35770,1061,693
35775,1069,693
35780,1074,698
35785,1090,705
35790,1105,707
35795,1099,717
35800,1111,722
35805,1118,729
35810,1121,731
35815,1138,738
35820,1139,746
35825,1148,750
35830,1151,756
35835,1160,763
35840,1158,769
35845,1169,775
35850,1171,783
35855,1172,795
35860,1189,797
35865,1181,801
35870,1174,813
35875,1173,815
35880,1186,823
35885,1192,829
35890,1193,833
35895,1193,833
35900,1191,848
35905,1189,851
35910,1181,855
35915,1190,863
35920,1179,868
35925,1192,868
35930,1180,876
35935,1189,872
35940,1179,887
35945,1179,894
35950,1177,890
35955,1176,897
35960,1175,897
35965,1165,906
35970,1165,901
35975,1164,901
35980,1165,908
35985,1166,908
35990,1157,904
35995,1162,908
