timestamp_ms,ir_finger,ir_toe
0,1046,637
5,1050,641
10,1066,638
15,1072,643
20,1075,651
25,1098,652
30,1103,656
35,1108,663
40,1115,668
45,1121,675
50,1136,681
55,1144,688
60,1152,688
65,1154,700
70,1154,712
75,1161,718
80,1159,724
85,1172,725
90,1170,732
95,1171,743
100,1183,754
105,1185,761
110,1176,769
115,1182,777
120,1187,785
125,1187,793
130,1190,799
135,1191,805
140,1188,813
145,1192,823
150,1195,827
155,1177,836
160,1179,843
165,1182,853
170,1174,856
175,1175,860
180,1176,867
185,1169,877
190,1167,885
195,1163,883
200,1169,893
205,1160,894
210,1156,899
215,1157,907
220,1150,907
225,1157,912
230,1148,913
235,1139,912
240,1131,918
245,1128,924
250,1124,923
255,1131,922
260,1133,925
265,1123,922
270,1116,928
275,1110,931
280,1119,931
285,1105,931
290,1109,924
295,1109,925
300,1100,930
305,1104,929
310,1104,924
315,1098,921
320,1095,920
325,1081,921
330,1083,914
335,1089,911
340,1092,915
345,1085,917
350,1082,911
355,1079,907
360,1083,913
365,1080,906
370,1077,899
375,1073,894
380,1079,899
385,1068,893
390,1061,892
395,1059,892
400,1056,885
405,1062,885
410,1049,882
415,1051,881
420,1038,881
425,1038,883
430,1039,877
435,1027,869
440,1020,876
445,1011,868
450,1008,872
455,998,872
460,989,874
465,982,869
470,983,864
475,975,861
480,975,860
485,968,864
490,955,863
495,942,852
500,931,858
505,936,856
510,921,854
515,912,853
520,907,846
525,889,846
530,886,844
535,872,846
540,862,843
545,858,841
550,858,844
555,841,838
560,846,838
565,824,824
570,820,833
575,811,827
580,807,822
585,793,817
590,787,810
595,793,809
600,785,806
605,777,805
610,764,797
615,771,789
620,758,782
625,759,781
630,765,779
635,749,776
640,751,771
645,741,760
650,748,757
655,747,752
660,745,746
665,752,738
670,759,733
675,750,730
680,765,716
685,763,721
690,760,708
695,764,702
700,775,695
705,783,693
710,788,692
715,787,681
720,797,678
725,814,671
730,817,674
735,820,658
740,843,654
745,846,653
750,851,653
755,861,645
760,877,641
765,891,639
770,888,638
775,912,631
780,920,637
785,928,632
790,938,633
795,954,625
800,973,626
805,974,623
810,997,627
815,1011,633
820,1014,629
825,1023,634
830,1035,639
835,1043,637
840,1047,638
845,1065,639
850,1078,645
855,1088,650
860,1091,655
865,1106,660
870,1104,658
875,1109,669
880,1132,675
885,1129,684
890,1145,692
895,1142,695
900,1157,699
905,1153,713
910,1154,710
915,1177,718
920,1175,733
925,1170,738
930,1181,744
935,1182,753
940,1189,761
945,1185,771
950,1190,775
955,1187,787
960,1187,795
965,1180,805
970,1195,809
975,1196,814
980,1192,822
985,1180,824
990,1185,845
995,1180,843
1000,1172,852
1004,1179,854
1010,1174,865
1014,1178,870
1020,1167,877
1025,1173,878
1030,1164,895
1035,1163,891
1040,1159,895
1045,1147,903
1050,1145,909
1055,1143,908
1060,1141,912
1065,1148,913
1070,1136,918
1075,1142,923
1080,1128,922
1085,1127,922
1090,1121,920
1095,1128,928
1100,1129,925
1105,1112,925
1110,1111,929
1115,1107,926
1120,1112,928
1125,1105,929
1130,1107,927
1135,1101,924
1140,1103,919
1145,1105,919
1150,1103,923
1155,1093,921
1160,1104,923
1165,1090,917
1170,1086,914
1175,1089,917
1180,1077,909
1185,1092,911
1190,1079,908
1195,1083,904
1200,1070,906
1205,1067,903
1210,1065,896
1215,1070,892
1220,1074,896
1225,1061,892
1230,1063,890
1235,1054,886
1240,1052,881
1245,1058,885
1250,1045,881
1255,1036,880
1260,1033,880
1265,1029,874
1270,1016,874
1275,1015,870
1280,1011,874
1285,1000,874
1290,993,870
1295,1003,865
1300,988,864
1305,975,865
1310,978,869
1315,970,855
1320,958,855
1325,950,862
1330,929,859
1335,931,858
1340,925,856
1345,921,851
1350,913,854
1355,902,846
1360,891,845
1365,883,841
1370,876,845
1375,879,844
1380,846,845
1385,855,834
1390,841,832
1395,823,832
1400,825,829
1405,819,825
1410,803,824
1415,814,814
1420,797,814
1425,785,811
1430,784,810
1435,772,805
1440,772,801
1445,759,794
1450,755,790
1455,754,786
1460,758,781
1465,763,785
1470,755,775
1475,748,771
1480,748,764
1485,753,752
1490,744,746
1495,754,742
1500,758,735
1505,752,733
1510,754,728
1515,757,724
1520,762,713
1525,760,714
1530,770,702
1535,771,692
1540,776,697
1545,789,688
1550,803,678
1555,798,678
1560,803,672
1565,811,662
1570,823,660
1575,825,657
1580,851,657
1585,849,648
1590,872,647
1595,878,642
1600,885,641
1605,893,641
1610,915,632
1615,922,633
1620,926,625
1625,943,629
1630,948,629
1635,965,625
1640,988,633
1645,994,628
1650,992,625
1655,1005,634
1660,1025,635
1665,1031,629
1670,1051,636
1675,1058,641
1680,1073,646
1685,1074,645
1690,1090,654
1695,1100,654
1700,1098,660
1705,1111,661
1710,1124,671
1715,1140,680
1720,1132,678
1725,1140,691
1730,1147,699
1735,1158,700
1740,1160,704
1745,1167,719
1750,1170,723
1755,1169,732
1760,1174,741
1765,1178,751
1770,1178,753
1775,1187,759
1780,1179,776
1785,1189,778
1790,1181,792
1795,1192,795
1800,1189,806
1805,1197,810
1810,1186,820
1815,1182,822
1820,1181,833
1825,1186,835
1830,1190,841
1835,1183,850
1840,1184,857
1845,1174,869
1850,1170,867
1855,1175,876
1860,1164,884
1865,1170,889
1870,1158,893
1875,1152,895
1880,1160,893
1885,1148,912
1890,1149,909
1895,1142,911
1900,1139,916
1905,1143,916
1910,1141,922
1915,1127,925
1920,1123,924
1925,1116,926
1930,1130,926
1935,1120,926
1940,1118,932
1945,1111,926
1950,1099,931
1955,1104,924
1960,1112,926
1965,1107,925
1970,1095,924
1975,1098,923
1980,1095,923
1985,1097,925
1990,1112,917
1995,1083,919
2000,1088,922
2005,1089,917
2009,1089,913
2015,1079,911
2020,1082,906
2025,1085,909
2029,1075,908
2035,1077,902
2040,1081,904
2045,1072,899
2050,1073,898
2055,1071,897
2060,1067,895
2065,1060,892
2070,1058,887
2075,1052,884
2080,1050,881
2085,1048,879
2090,1045,882
2095,1041,879
2100,1031,879
2105,1028,874
2110,1027,878
2115,1013,868
2120,1020,875
2125,994,871
2130,990,866
2135,992,868
2140,976,864
2145,983,865
2150,968,860
2155,959,861
2160,954,862
2165,935,860
2170,923,858
2175,919,855
2180,917,856
2185,907,855
2190,899,848
2195,896,850
2200,891,845
2205,873,844
2210,856,844
2215,862,842
2220,846,836
2225,831,837
2230,835,837
2235,822,829
2240,815,822
2245,810,821
2250,805,815
2255,788,817
2260,793,816
2265,784,811
2270,780,803
2275,773,797
2280,771,798
2285,757,789
2290,763,785
2295,768,788
2300,749,776
2305,747,769
2310,754,763
2315,751,759
2320,753,756
2325,746,746
2330,747,744
2335,744,736
2340,749,728
2345,749,724
2350,757,717
2355,758,709
2360,766,710
2365,767,708
2370,776,696
2375,786,689
2380,787,682
2385,790,682
2390,808,678
2395,808,669
2400,819,667
2405,828,661
2410,839,657
2415,843,653
2420,854,649
2425,868,643
2430,879,639
2435,894,634
2440,898,635
2445,915,635
2450,918,631
2455,931,635
2460,943,632
2465,958,625
2470,971,621
2475,972,622
2480,993,628
2485,993,628
2490,1020,630
2495,1022,633
2500,1034,631
2505,1047,642
2510,1062,635
2515,1073,642
2520,1078,651
2525,1086,643
2530,1091,655
2535,1108,660
2540,1113,666
2545,1116,665
2550,1129,679
2555,1135,688
2560,1140,689
2565,1149,700
2570,1150,704
2575,1159,707
2580,1160,717
2585,1164,728
2590,1171,734
2595,1169,735
2600,1173,749
2605,1178,749
2610,1181,763
2615,1181,766
2620,1188,777
2625,1191,784
2630,1188,794
2635,1193,801
2640,1185,811
2645,1196,814
2650,1180,826
2655,1182,833
2660,1190,839
2665,1180,844
2670,1181,853
2675,1182,861
2680,1175,866
2685,1178,872
2690,1171,874
2695,1164,882
2700,1156,887
2705,1161,893
2710,1162,898
2715,1158,901
2720,1158,907
2725,1149,909
2730,1139,911
2735,1139,916
2740,1139,917
2745,1134,919
2750,1140,927
2755,1131,926
2760,1119,932
2765,1125,923
2770,1124,922
2775,1112,925
2780,1116,925
2785,1105,927
2790,1115,928
2795,1104,927
2800,1103,928
2805,1099,923
2810,1111,921
2815,1097,922
2820,1096,919
2825,1094,922
2830,1092,921
2835,1086,920
2840,1090,915
2845,1079,915
2850,1083,911
2855,1081,911
2860,1077,906
2865,1066,908
2870,1075,904
2875,1071,898
2880,1066,894
2885,1065,898
2890,1062,894
2895,1060,890
2900,1058,895
2905,1058,886
2910,1053,885
2915,1052,887
2920,1044,882
2925,1034,879
2930,1037,876
2935,1021,875
2940,1018,872
2945,1015,875
2950,1004,872
2955,1005,873
2960,986,864
2965,988,867
2970,982,861
2975,980,864
2980,973,864
2985,975,858
2990,953,862
2995,956,860
3000,948,856
3005,933,856
3010,929,857
3015,914,857
3020,907,855
3025,898,852
3030,900,848
3035,875,848
3040,874,841
3045,859,838
3050,849,840
3055,852,841
3060,846,830
3065,832,830
3070,820,825
3075,810,825
3080,822,821
3085,802,818
3090,792,815
3095,792,812
3100,786,812
3105,783,805
3110,773,797
3115,777,797
3120,762,791
3125,754,783
3130,752,778
3135,753,771
3140,752,770
3145,758,768
3150,750,764
3155,746,755
3160,752,748
3165,752,743
3170,745,737
3175,756,728
3180,757,727
3185,755,716
3190,758,712
3195,760,707
3200,772,702
3205,768,693
3210,779,690
3215,785,686
3220,799,679
3225,808,674
3230,804,670
3235,824,660
3240,829,657
3245,845,652
3250,851,655
3255,861,646
3260,865,645
3265,873,636
3270,889,641
3275,898,636
3280,916,637
3285,932,627
3290,938,630
3295,947,631
3300,956,630
3305,976,627
3310,985,625
3315,991,630
3320,1006,630
3325,1015,627
3330,1027,633
3335,1036,637
3340,1056,633
3345,1058,637
3350,1068,644
3355,1082,649
3360,1093,652
3365,1095,657
3370,1099,660
3375,1120,670
3380,1125,668
3385,1119,681
3390,1136,682
3395,1146,686
3400,1153,698
3405,1156,702
3410,1159,711
3415,1178,719
3420,1166,725
3425,1173,733
3430,1179,741
3435,1184,747
3440,1187,758
3445,1183,762
3450,1189,770
3455,1191,777
3460,1179,785
3465,1186,800
3470,1183,808
3475,1192,805
3480,1188,813
3485,1182,821
3490,1184,833
3495,1187,836
3500,1175,847
3505,1192,854
3510,1175,858
3515,1168,871
3520,1165,872
3525,1164,877
3530,1156,885
3535,1168,887
3540,1161,898
3545,1158,900
3550,1157,903
3555,1158,906
3560,1143,912
3565,1148,916
3570,1134,920
3575,1137,918
3580,1140,927
3585,1126,925
3590,1130,928
3595,1121,924
3600,1119,923
3605,1113,925
3610,1124,932
3615,1118,929
3620,1114,933
3625,1116,923
3630,1114,927
3635,1104,923
3640,1094,927
3645,1097,924
3650,1098,921
3655,1092,918
3660,1098,917
3665,1096,919
3670,1101,915
3675,1083,919
3680,1083,914
3685,1093,906
3690,1082,908
3695,1080,911
3700,1074,901
3705,1070,899
3710,1074,899
3715,1069,896
3720,1073,891
3725,1067,892
3730,1062,894
3735,1063,891
3740,1051,885
3745,1046,887
3750,1039,880
3755,1035,884
3760,1046,887
3765,1027,878
3770,1030,870
3775,1023,871
3780,1014,875
3785,1007,871
3790,1007,870
3795,990,867
3800,997,874
3805,996,867
3810,974,865
3815,967,859
3820,958,863
3825,959,859
3830,956,862
3835,929,860
3840,932,856
3845,933,854
3850,913,849
3855,902,851
3860,902,849
3865,902,843
3870,888,848
3875,880,840
3880,868,840
3885,865,841
3890,846,830
3895,841,840
3900,835,830
3905,827,826
3910,816,826
3915,814,824
3920,812,813
3925,792,815
3930,778,805
3935,784,800
3940,776,799
3945,777,794
3950,773,793
3955,758,791
3960,761,790
3965,759,786
3970,742,774
3975,743,766
3980,746,762
3985,745,752
3990,755,756
3995,751,748
4000,753,740
4005,761,738
4010,752,731
4014,758,722
4019,758,717
4025,759,710
4030,764,709
4035,771,703
4040,781,691
4045,775,691
4050,790,682
4054,792,681
4059,797,673
4065,820,664
4070,812,661
4075,829,657
4080,834,652
4085,847,648
4090,852,646
4094,875,642
4100,878,638
4105,894,632
4110,902,634
4115,921,633
4120,922,633
4125,935,624
4130,952,628
4135,959,630
4140,974,626
4145,982,621
4150,993,630
4155,1004,632
4160,1014,628
4165,1019,632
4170,1035,633
4175,1039,641
4180,1054,639
4185,1062,642
4190,1070,649
4195,1094,652
4200,1089,654
4205,1106,659
4210,1111,669
4215,1128,667
4220,1138,679
4225,1136,688
4230,1147,690
4235,1155,701
4240,1156,707
4245,1170,715
4250,1165,722
4255,1181,728
4260,1179,732
4265,1172,741
4270,1181,746
4275,1177,757
4280,1185,762
4285,1188,774
4290,1185,784
4295,1192,793
4300,1181,797
4305,1177,802
4310,1184,813
4315,1191,815
4320,1179,825
4325,1174,834
4330,1181,847
4335,1184,840
4340,1176,851
4345,1174,862
4350,1181,863
4355,1174,877
4360,1165,880
4365,1172,885
4370,1176,888
4375,1162,897
4380,1155,899
4385,1153,905
4390,1148,909
4395,1146,908
4400,1144,909
4405,1152,915
4410,1136,920
4415,1134,916
4420,1133,925
4425,1131,926
4430,1119,927
4435,1120,929
4440,1115,925
4445,1124,924
4450,1115,924
4455,1127,929
4460,1110,928
4465,1108,924
4470,1105,927
4475,1100,928
4480,1102,923
4485,1102,925
4490,1102,918
4495,1099,916
4500,1094,917
4505,1101,915
4510,1080,911
4515,1090,915
4520,1082,907
4525,1077,913
4530,1081,911
4535,1078,902
4540,1073,904
4545,1074,903
4550,1060,901
4555,1065,898
4560,1063,895
4565,1066,894
4570,1060,887
4575,1052,883
4580,1050,887
4585,1050,879
4590,1047,884
4595,1035,882
4600,1032,879
4605,1026,876
4610,1013,874
4615,1023,873
4620,1011,871
4625,1007,877
4630,995,867
4635,991,867
4640,989,860
4645,987,864
4650,964,862
4655,955,863
4660,957,863
4665,948,859
4670,927,855
4675,937,857
4680,926,857
4685,918,852
4690,902,850
4695,901,847
4700,890,848
4705,879,841
4710,880,843
4715,866,837
4720,855,840
4725,852,838
4730,840,833
4735,827,829
4740,832,826
4745,823,823
4750,807,823
4755,798,816
4760,797,814
4765,781,813
4770,774,808
4775,778,805
4780,770,795
4785,766,788
4790,760,787
4795,753,783
4800,760,776
4805,755,777
4810,749,771
4815,754,764
4820,750,757
4825,741,757
4830,747,752
4835,755,741
4840,750,730
4845,752,724
4850,756,729
4855,760,720
4860,756,711
4865,769,705
4870,773,702
4875,782,690
4880,784,684
4885,798,685
4890,797,680
4895,798,673
4900,810,662
4905,821,666
4910,831,665
4915,837,656
4920,855,659
4925,860,648
4930,866,642
4935,877,638
4940,899,642
4945,897,633
4950,903,638
4955,929,629
4960,939,630
4965,954,632
4970,954,629
4975,969,634
4980,984,634
4985,991,624
4990,1008,627
4995,1013,627
5000,1032,631
5005,1038,632
5010,1057,637
5015,1058,646
5020,1076,647
5025,1074,648
5030,1084,656
5035,1099,664
5040,1102,661
5045,1110,666
5050,1114,670
5055,1124,675
5060,1142,681
5065,1141,695
5070,1155,696
5075,1154,710
5080,1164,712
5085,1159,722
5090,1166,730
5095,1175,734
5100,1173,741
5105,1178,749
5110,1189,759
5115,1188,766
5120,1188,774
5125,1196,775
5130,1183,787
5135,1196,793
5140,1184,806
5145,1191,816
5150,1192,817
5155,1187,827
5160,1182,834
5165,1189,838
5170,1179,848
5175,1176,854
5180,1170,859
5185,1180,862
5190,1176,877
5195,1169,878
5200,1165,887
5205,1168,892
5210,1162,900
5215,1163,896
5220,1154,906
5225,1156,906
5230,1147,909
5235,1137,908
5240,1134,915
5245,1140,913
5250,1131,919
5255,1133,924
5260,1133,928
5265,1125,923
5270,1122,921
5275,1120,928
5280,1118,930
5285,1114,929
5290,1107,927
5295,1115,924
5300,1102,937
5305,1106,923
5310,1103,923
5315,1108,925
5320,1099,921
5325,1094,918
5330,1096,914
5335,1095,914
5340,1087,919
5345,1086,916
5350,1085,914
5355,1077,909
5360,1081,909
5365,1073,906
5370,1086,904
5375,1077,900
5380,1078,896
5385,1077,900
5390,1069,897
5395,1060,892
5400,1061,896
5405,1060,888
5410,1049,885
5415,1043,882
5420,1040,885
5425,1041,879
5430,1030,878
5435,1028,877
5440,1024,876
5445,1020,873
5450,1014,874
5455,1007,867
5460,1000,869
5465,1002,865
5470,992,869
5475,985,864
5480,981,862
5485,965,864
5490,966,864
5495,945,858
5500,953,858
5505,935,858
5510,931,853
5515,923,851
5520,911,849
5525,902,848
5530,894,849
5535,888,847
5540,876,847
5545,870,849
5550,867,840
5555,857,837
5560,850,830
5565,840,831
5570,825,831
5575,820,829
5580,820,824
5585,813,815
5590,796,822
5595,792,815
5600,791,809
5605,778,807
5610,775,803
5615,777,798
5620,762,798
5625,766,788
5630,767,781
5635,758,775
5640,756,772
5645,745,772
5650,748,764
5655,742,756
5660,745,755
5665,741,751
5670,751,737
5675,757,734
5680,747,725
5685,746,723
5690,757,712
5695,751,716
5700,763,701
5705,774,699
5710,787,688
5715,782,688
5720,789,684
5725,790,675
5730,804,673
5735,809,667
5740,820,664
5745,833,662
5750,843,653
5755,862,653
5760,863,646
5765,877,640
5770,888,641
5775,894,634
5780,902,635
5785,919,633
5790,930,632
5795,937,623
5800,955,634
5805,961,628
5810,980,626
5815,981,631
5820,1006,624
5825,1007,630
5830,1014,631
5835,1036,629
5840,1044,631
5845,1051,639
5850,1059,643
5855,1067,651
5860,1085,644
5865,1095,653
5870,1099,657
5875,1116,663
5880,1119,667
5885,1129,672
5890,1132,681
5895,1133,688
5900,1143,690
5905,1150,701
5910,1152,705
5915,1164,713
5920,1154,717
5925,1172,727
5930,1172,732
5935,1174,739
5940,1177,751
5945,1189,761
5950,1180,768
5955,1184,775
5960,1184,788
5965,1183,791
5970,1187,797
5975,1192,804
5980,1188,811
5985,1192,818
5990,1185,832
5995,1177,836
6000,1190,844
6005,1180,849
6010,1177,861
6015,1177,865
6020,1175,864
6025,1162,872
6030,1160,885
6035,1162,883
6040,1164,888
6045,1159,893
6050,1151,896
6055,1159,902
6060,1144,908
6065,1152,918
6070,1136,916
6075,1144,916
6080,1146,909
6085,1139,924
6090,1129,924
6095,1128,927
6100,1126,925
6105,1118,925
6110,1124,929
6115,1120,924
6120,1112,931
6125,1114,921
6130,1106,933
6135,1105,926
6140,1107,926
6145,1107,930
6150,1101,925
6155,1092,919
6160,1092,921
6165,1097,918
6170,1090,922
6175,1092,919
6180,1086,913
6185,1084,913
6190,1088,909
6195,1077,905
6200,1078,907
6205,1069,903
6210,1074,898
6215,1073,895
6220,1075,896
6225,1069,897
6230,1061,895
6235,1058,891
6240,1060,887
6245,1048,889
6250,1049,884
6255,1044,886
6260,1035,879
6265,1043,880
6270,1034,881
6275,1031,880
6280,1007,868
6285,1011,871
6290,1017,873
6295,1015,874
6300,995,868
6305,994,864
6310,976,867
6315,976,866
6320,974,861
6325,952,863
6330,948,861
6335,945,855
6340,934,858
6345,932,859
6350,917,853
6355,908,848
6360,906,848
6365,898,842
6370,892,847
6375,877,845
6380,872,843
6385,853,838
6390,848,837
6395,847,837
6400,835,835
6405,824,829
6410,816,824
6415,821,821
6420,802,819
6425,799,818
6430,784,817
6435,779,810
6440,777,802
6445,777,796
6450,772,796
6455,774,794
6460,757,787
6465,763,786
6470,747,777
6475,752,776
6480,751,768
6485,752,761
6490,744,757
6495,752,748
6500,742,743
6505,741,740
6510,753,731
6515,758,724
6520,759,729
6525,761,715
6530,765,709
6535,768,704
6540,771,702
6545,785,698
6550,783,687
6555,790,683
6560,799,681
6565,806,672
6570,820,671
6575,827,657
6580,828,665
6585,843,654
6590,849,648
6595,867,647
6600,877,643
6605,885,639
6610,898,635
6615,899,629
6620,915,632
6625,925,629
6630,947,624
6635,953,628
6640,968,628
6645,986,624
6650,982,632
6655,1000,628
6660,1012,632
6665,1029,633
6670,1028,635
6675,1046,635
6680,1054,642
6685,1059,635
6690,1077,647
6695,1078,654
6700,1096,650
6705,1107,658
6710,1110,661
6715,1128,667
6720,1125,673
6725,1136,678
6730,1146,687
6735,1143,697
6740,1159,699
6745,1160,705
6750,1167,716
6755,1165,720
6760,1179,729
6765,1178,738
6770,1180,746
6775,1191,752
6780,1176,759
6785,1182,768
6790,1189,778
6795,1190,786
6800,1194,793
6805,1182,801
6810,1174,805
6815,1191,813
6820,1182,817
6825,1186,826
6830,1188,842
6835,1169,848
6840,1183,849
6845,1177,859
6850,1183,863
6855,1166,872
6860,1169,877
6865,1163,876
6870,1175,888
6875,1165,893
6880,1166,895
6885,1152,901
6890,1152,896
6895,1147,909
6900,1139,908
6905,1142,914
6910,1149,914
6915,1136,921
6920,1139,927
6925,1132,925
6930,1135,925
6935,1127,919
6940,1120,928
6945,1120,928
6950,1118,928
6955,1108,930
6960,1106,933
6965,1112,926
6970,1117,924
6975,1095,923
6980,1098,924
6985,1108,921
6990,1097,923
6995,1104,923
7000,1100,922
7005,1094,920
7010,1091,911
7015,1092,914
7020,1082,915
7025,1084,903
7030,1085,909
7035,1086,907
7040,1080,905
7045,1074,904
7050,1072,894
7055,1068,895
7060,1065,896
7065,1071,896
7070,1068,887
7075,1060,887
7080,1055,884
7085,1047,880
7090,1053,883
7095,1036,878
7100,1034,877
7105,1033,875
7110,1027,878
7115,1016,869
7120,1015,874
7125,1007,874
7130,1005,874
7135,991,873
7140,983,870
7145,976,866
7150,977,862
7155,972,862
7160,966,865
7165,959,863
7170,946,858
7175,933,861
7180,927,852
7185,907,856
7190,918,850
7195,900,852
7200,887,846
7205,885,846
7210,876,842
7215,869,842
7220,860,837
7225,841,838
7230,840,837
7235,831,834
7240,817,829
7245,826,830
7250,817,823
7255,805,822
7260,797,817
7265,779,813
7270,780,811
7275,781,810
7280,779,799
7285,764,792
7290,767,798
7295,767,780
7300,761,782
7305,771,774
7310,753,771
7315,753,769
7320,750,765
7325,741,758
7330,747,750
7335,755,746
7340,755,736
7345,751,731
7350,754,730
7355,742,721
7360,764,716
7365,767,712
7370,769,707
7375,772,696
7380,785,697
7385,789,688
7390,788,688
7395,807,678
7400,813,668
7405,818,665
7410,817,661
7415,833,653
7420,849,650
7425,853,648
7430,858,645
7435,885,642
7440,894,638
7445,897,636
7450,909,634
7455,916,637
7460,930,625
7465,937,627
7470,949,632
7475,969,627
7480,976,630
7485,986,632
7490,1010,634
7495,1001,636
7500,1024,631
7505,1033,629
7510,1051,638
7515,1054,643
7520,1068,643
7525,1074,652
7530,1071,650
7535,1099,659
7540,1102,660
7545,1107,668
7550,1118,668
7555,1130,672
7560,1141,682
7565,1144,683
7570,1145,694
7575,1154,702
7580,1159,711
7585,1163,719
7590,1166,724
7595,1168,732
7600,1182,741
7605,1173,746
7610,1184,752
7615,1181,762
7620,1183,778
7625,1189,774
7630,1194,792
7635,1188,791
7640,1185,803
7645,1180,809
7650,1187,814
7655,1193,824
7660,1194,830
7665,1180,845
7670,1184,851
7675,1181,854
7680,1186,855
7685,1171,865
7690,1165,870
7695,1177,883
7700,1170,875
7705,1164,883
7710,1162,894
7715,1158,895
7720,1155,903
7725,1151,904
7730,1145,910
7735,1147,905
7740,1142,912
7745,1134,915
7750,1132,919
7755,1136,929
7760,1125,925
7765,1128,928
7770,1127,925
7775,1124,932
7780,1116,924
7785,1112,927
7790,1117,928
7795,1110,926
7800,1108,929
7805,1096,923
7810,1105,923
7815,1102,917
7820,1095,921
7825,1092,923
7830,1094,923
7835,1087,917
7840,1088,919
7845,1095,917
7850,1082,912
7855,1080,912
7860,1078,910
7865,1084,909
7870,1078,906
7875,1072,902
7880,1073,901
7885,1071,899
7890,1068,900
7895,1072,894
7900,1061,894
7905,1061,894
7910,1057,891
7915,1055,881
7920,1046,886
7925,1039,887
7930,1044,882
7935,1039,875
7940,1026,877
7945,1022,878
7950,1021,880
7955,1007,874
7960,1003,870
7965,1002,870
7970,991,864
7975,991,869
7980,979,867
7985,976,863
7990,964,852
7995,960,862
8000,956,865
8005,940,855
8010,938,854
8015,930,853
8020,920,850
8025,914,854
8029,891,848
8035,896,848
8039,886,846
8045,877,842
8050,865,841
8055,863,841
8060,851,831
8064,845,829
8070,829,832
8074,829,831
8080,814,827
8085,815,827
8090,810,822
8095,795,814
8100,788,812
8105,786,809
8109,777,803
8115,781,804
8119,764,792
8125,768,788
8130,757,785
8135,749,783
8140,757,772
8145,754,772
8150,751,760
8154,738,755
8160,745,754
8164,757,746
8170,741,742
8175,755,742
8180,753,730
8185,761,727
8189,750,721
8195,757,715
8200,762,710
8205,764,694
8210,770,699
8215,787,690
8220,786,687
8225,797,681
8230,803,681
8235,815,666
8240,807,665
8245,828,654
8250,833,649
8255,847,652
8260,859,649
8265,867,643
8270,883,644
8275,885,634
8280,896,637
8285,910,634
8290,918,628
8295,925,633
8300,941,631
8305,959,628
8310,962,624
8315,981,629
8320,990,625
8325,999,635
8330,1011,635
8335,1030,630
8340,1031,629
8345,1055,640
8350,1054,640
8355,1064,643
8360,1081,648
8365,1085,645
8370,1090,656
8375,1101,662
8380,1108,671
8385,1121,671
8390,1127,678
8395,1134,676
8400,1146,689
8405,1149,694
8410,1151,703
8415,1148,711
8420,1155,718
8425,1167,721
8430,1168,736
8435,1179,742
8440,1172,747
8445,1180,757
8450,1186,765
8455,1180,769
8460,1186,773
8465,1189,784
8470,1196,790
8475,1188,800
8480,1190,807
8485,1193,824
8490,1175,825
8495,1194,828
8500,1183,838
8505,1180,841
8510,1195,852
8515,1179,861
8520,1179,866
8525,1163,865
8530,1172,875
8535,1171,882
8540,1169,890
8545,1160,890
8550,1151,900
8555,1154,900
8560,1154,900
8565,1149,909
8570,1140,909
8575,1145,918
8580,1141,915
8585,1136,920
8590,1133,921
8595,1130,925
8600,1130,923
8605,1120,925
8610,1136,929
8615,1121,927
8620,1108,930
8625,1106,930
8630,1113,927
8635,1111,926
8640,1098,924
8645,1110,924
8650,1105,923
8655,1089,919
8660,1098,923
8665,1089,919
8670,1090,918
8675,1099,916
8680,1090,912
8685,1078,916
8690,1077,909
8695,1081,908
8700,1079,908
8705,1087,906
8710,1070,900
8715,1067,897
8720,1071,897
8725,1063,896
8730,1054,898
8735,1054,892
8740,1056,883
8745,1054,882
8750,1051,884
8755,1046,884
8760,1050,886
8765,1041,877
8770,1029,881
8775,1027,874
8780,1026,878
8785,1017,869
8790,1004,873
8795,1006,871
8800,999,871
8805,987,865
8810,991,870
8815,974,865
8820,970,863
8825,972,868
8830,956,852
8835,947,859
8840,944,861
8845,928,856
8850,928,851
8855,916,855
8860,909,850
8865,909,850
8870,895,847
8875,880,843
8880,865,841
8885,862,843
8890,859,841
8895,843,837
8900,845,840
8905,827,831
8910,826,827
8915,821,828
8920,805,821
8925,811,821
8930,795,816
8935,786,812
8940,790,806
8945,781,806
8950,768,803
8955,762,793
8960,766,790
8965,764,786
8970,750,787
8975,752,773
8980,752,765
8985,746,756
8990,750,759
8995,752,756
9000,744,747
9005,749,744
9010,756,735
9015,762,733
9020,757,725
9025,754,720
9030,750,715
9035,772,711
9040,763,702
9045,773,696
9050,773,689
9055,783,682
9060,796,675
9065,809,673
9070,800,672
9075,816,666
9080,830,658
9085,836,657
9090,843,652
9095,862,648
9100,870,639
9105,872,641
9110,889,639
9115,903,635
9120,911,629
9125,924,631
9130,938,628
9135,945,627
9140,951,627
9145,968,625
9150,976,629
9155,994,622
9160,995,630
9165,1015,629
9170,1018,632
9175,1034,632
9180,1065,637
9185,1053,645
9190,1072,648
9195,1076,642
9200,1090,656
9205,1098,655
9210,1097,658
9215,1115,668
9220,1125,670
9225,1128,679
9230,1136,684
9235,1142,687
9240,1158,694
9245,1155,703
9250,1162,707
9255,1171,713
9260,1170,721
9265,1176,734
9270,1177,734
9275,1176,749
9280,1190,754
9285,1190,762
9290,1188,773
9295,1183,781
9300,1194,790
9305,1185,795
9310,1191,802
9315,1193,809
9320,1179,820
9325,1185,825
9330,1188,826
9335,1184,837
9340,1173,850
9345,1178,855
9350,1175,855
9355,1174,869
9360,1168,877
9365,1165,877
9370,1166,884
9375,1169,890
9380,1162,890
9385,1146,889
9390,1153,902
9395,1147,903
9400,1147,909
9405,1144,915
9410,1143,912
9415,1139,914
9420,1142,918
9425,1135,927
9430,1125,925
9435,1126,925
9440,1121,927
9445,1122,926
9450,1121,931
9455,1119,929
9460,1115,930
9465,1103,932
9470,1108,927
9475,1112,920
9480,1106,923
9485,1098,922
9490,1107,925
9495,1093,922
9500,1099,923
9505,1088,924
9510,1091,916
9515,1091,911
9520,1092,914
9525,1076,910
9530,1087,907
9535,1073,905
9540,1082,905
9545,1082,902
9550,1066,900
9555,1067,896
9560,1064,897
9565,1065,898
9570,1051,891
9575,1059,883
9580,1050,883
9585,1049,886
9590,1044,890
9595,1051,881
9600,1033,885
9605,1035,876
9610,1024,878
9615,1020,874
9620,1018,873
9625,1013,871
9630,1011,871
9635,999,863
9640,992,868
9645,976,863
9650,980,863
9655,968,860
9660,967,861
9665,964,859
9670,948,862
9675,933,854
9680,939,860
9685,923,853
9690,917,850
9695,900,847
9700,904,850
9705,894,842
9710,882,848
9715,876,847
9720,874,839
9725,849,842
9730,859,836
9735,837,833
9740,828,830
9745,827,832
9750,820,826
9755,806,825
9760,807,816
9765,791,815
9770,781,812
9775,776,804
9780,781,801
9785,771,792
9790,773,794
9795,763,790
9800,760,788
9805,758,780
9810,750,774
9815,754,772
9820,749,768
9825,747,760
9830,744,755
9835,745,750
9840,749,740
9845,742,736
9850,743,729
9855,759,723
9860,754,713
9865,767,711
9870,770,707
9875,768,704
9880,782,698
9885,786,687
9890,797,686
9895,797,675
9900,813,669
9905,798,670
9910,823,668
9915,843,665
9920,839,653
9925,850,654
9930,860,646
9935,865,645
9940,879,636
9945,891,631
9950,901,633
9955,919,634
9960,920,633
9965,936,626
9970,946,628
9975,963,631
9980,968,628
9985,988,626
9990,993,632
9995,1008,628
10000,1019,628
10005,1031,629
10010,1033,633
10015,1047,640
10020,1055,641
10025,1067,638
10030,1076,644
10035,1098,655
10040,1098,660
10045,1107,660
10050,1119,663
10055,1119,674
10060,1135,675
10065,1129,682
10070,1137,687
10075,1150,698
10080,1152,699
10085,1156,715
10090,1173,719
10095,1170,724
10100,1169,732
10105,1185,745
10110,1173,747
10115,1182,758
10120,1176,768
10125,1189,768
10130,1189,781
10135,1192,787
10140,1191,798
10145,1181,802
10150,1186,812
10155,1178,819
10160,1188,828
10165,1186,833
10170,1179,842
10175,1182,846
10180,1183,856
10185,1178,862
10190,1175,869
10195,1176,874
10200,1171,883
10205,1170,881
10210,1165,887
10215,1169,894
10220,1151,894
10225,1158,903
10230,1146,907
10235,1139,907
10240,1146,915
10245,1138,914
10250,1135,914
10255,1137,925
10260,1132,925
10265,1124,925
10270,1120,928
10275,1123,926
10280,1123,930
10285,1115,927
10290,1105,928
10295,1119,927
10300,1105,924
10305,1109,927
10310,1103,923
10315,1101,926
10320,1097,924
10325,1091,925
10330,1093,922
10335,1091,920
10340,1092,917
10345,1084,911
10350,1089,912
10355,1079,907
10360,1081,911
10365,1085,909
10370,1079,906
10375,1079,911
10380,1076,900
10385,1068,902
10390,1078,898
10395,1070,902
10400,1074,892
10405,1063,895
10410,1067,891
10415,1055,887
10420,1053,886
10425,1052,877
10430,1034,886
10435,1030,883
10440,1044,878
10445,1030,878
10450,1027,877
10455,1015,875
10460,1012,865
10465,1018,871
10470,998,871
10475,998,863
10480,985,866
10485,974,860
10490,958,862
10495,963,864
10500,964,859
10505,941,855
10510,936,861
10515,930,857
10520,925,852
10525,911,850
10530,903,854
10535,896,848
10540,883,847
10545,886,845
10550,875,848
10555,864,839
10560,862,842
10565,847,835
10570,841,836
10575,831,832
10580,812,824
10585,817,824
10590,798,825
10595,797,820
10600,788,816
10605,784,812
10610,784,801
10615,768,808
10620,767,802
10625,764,789
10630,764,792
10635,756,785
10640,755,774
10645,745,773
10650,746,767
10655,744,766
10660,743,755
10665,751,753
10670,735,748
10675,745,745
10680,752,733
10685,760,727
10690,753,727
10695,757,717
10700,761,714
10705,764,708
10710,773,703
10715,773,697
10720,781,688
10725,788,684
10730,785,681
10735,809,673
10740,812,670
10745,827,668
10750,819,657
10755,831,655
10760,847,647
10765,866,651
10770,868,642
10775,885,642
10780,898,637
10785,900,638
10790,920,631
10795,915,636
10800,941,628
10805,954,622
10810,964,630
10815,977,632
10820,986,631
10825,989,633
10830,1001,627
10835,1015,629
10840,1031,636
10845,1039,631
10850,1043,633
10855,1070,642
10860,1067,644
10865,1078,646
10870,1090,654
10875,1105,657
10880,1102,662
10885,1116,666
10890,1113,675
10895,1140,680
10900,1138,686
10905,1151,689
10910,1139,698
10915,1153,708
10920,1160,712
10925,1164,718
10930,1165,731
10935,1168,733
10940,1180,739
10945,1180,746
10950,1193,758
10955,1184,766
10960,1183,773
10965,1188,777
10970,1193,786
10975,1183,794
10980,1180,808
10985,1191,811
10990,1188,819
10995,1190,827
11000,1188,834
11005,1178,841
11010,1185,850
11015,1178,855
11020,1173,861
11025,1179,866
11030,1169,869
11035,1163,881
11040,1164,888
11045,1160,891
11050,1159,892
11055,1160,898
11060,1147,901
11065,1157,909
11070,1157,909
11075,1148,911
11080,1148,915
11085,1139,917
11090,1131,923
11095,1131,923
11100,1130,923
11105,1128,928
11110,1126,931
11115,1125,932
11120,1109,934
11125,1112,928
11130,1116,926
11135,1108,929
11140,1103,928
11145,1106,930
11150,1105,924
11155,1104,919
11160,1097,922
11165,1094,922
11170,1089,923
11175,1092,919
11180,1104,917
11185,1090,911
11190,1087,907
11195,1086,908
11200,1081,907
11205,1079,907
11210,1075,904
11215,1070,896
11220,1072,897
11225,1072,896
11230,1062,897
11235,1062,891
11240,1076,889
11245,1050,889
11250,1052,892
11255,1054,885
11260,1045,877
11265,1033,886
11270,1038,884
11275,1039,876
11280,1028,873
11285,1015,876
11290,1021,877
11295,1011,878
11300,1005,872
11305,1004,870
11310,989,865
11315,985,868
11320,971,863
11325,974,862
11330,968,862
11335,947,862
11340,942,855
11345,944,865
11350,927,858
11355,921,857
11360,918,849
11365,893,856
11370,894,849
11375,892,848
11380,872,847
11385,876,836
11390,861,841
11395,864,836
11400,850,840
11405,833,835
11410,836,829
11415,823,829
11420,816,824
11425,804,824
11430,797,820
11435,802,815
11440,778,818
11445,777,808
11450,790,806
11455,766,797
11460,765,795
11465,761,789
11470,754,782
11475,754,778
11480,756,775
11485,744,764
11490,754,761
11495,740,758
11500,753,753
11505,745,746
11510,751,739
11515,745,737
11520,746,731
11525,745,725
11530,762,720
11535,764,712
11540,772,704
11545,773,703
11550,782,696
11555,773,690
11560,791,682
11565,798,676
11570,814,669
11575,815,668
11580,819,666
11585,834,655
11590,837,654
11595,847,645
11600,865,646
11605,888,643
11610,880,642
11615,900,643
11620,892,630
11625,916,634
11630,925,630
11635,940,628
11640,952,630
11645,961,626
11650,970,628
11655,988,631
11660,1002,632
11665,1003,631
11670,1014,631
11675,1040,632
11680,1028,637
11685,1043,642
11690,1065,643
11695,1074,646
11700,1087,649
11705,1087,656
11710,1102,662
11715,1100,662
11720,1122,666
11725,1132,676
11730,1134,681
11735,1147,688
11740,1151,692
11745,1160,693
11750,1160,707
11755,1150,717
11760,1167,725
11765,1165,731
11770,1172,738
11775,1176,745
11780,1182,750
11785,1181,757
11790,1186,771
11795,1178,773
11800,1189,779
11805,1188,786
11810,1198,801
11815,1188,808
11820,1194,811
11825,1191,815
11830,1182,831
11835,1188,841
11840,1174,841
11845,1185,847
11850,1177,857
11855,1178,859
11860,1173,864
11865,1169,878
11870,1177,883
11875,1167,886
11880,1168,890
11885,1166,894
11890,1160,903
11895,1147,904
11900,1144,909
11905,1152,908
11910,1146,908
11915,1145,916
11920,1145,915
11925,1128,918
11930,1130,924
11935,1123,928
11940,1121,921
11945,1130,925
11950,1133,925
11955,1115,926
11960,1108,931
11965,1109,927
11970,1106,931
11975,1105,926
11980,1101,925
11985,1109,927
11990,1092,922
11995,1099,924
12000,1093,917
12005,1102,917
12010,1091,922
12015,1096,916
12020,1085,915
12025,1082,911
12030,1089,915
12035,1081,907
12040,1083,910
12045,1078,904
12050,1065,904
12055,1079,891
12060,1064,901
12065,1069,893
12070,1064,893
12075,1059,887
12080,1059,887
12085,1057,889
12090,1045,883
12095,1042,882
12100,1037,883
12105,1039,877
12110,1032,880
12115,1021,873
12120,1018,875
12125,1016,872
12130,1014,870
12135,1007,869
12140,998,868
12145,995,868
12150,990,865
12155,977,864
12160,959,864
12165,966,864
12170,950,855
12175,948,857
12180,937,862
12185,930,857
12190,925,855
12195,908,850
12200,897,850
12205,892,852
12210,897,844
12215,867,847
12220,865,838
12225,865,843
12230,853,837
12235,840,839
12240,827,832
12245,827,830
12250,826,827
12255,804,819
12260,799,832
12265,792,818
12270,796,816
12275,786,809
12280,781,807
12285,773,802
12290,767,800
12295,756,793
12300,768,788
12305,754,783
12310,755,780
12315,750,770
12320,750,772
12325,741,764
12330,746,759
12335,748,753
12340,751,745
12345,749,743
12350,745,737
12355,754,729
12360,755,723
12365,758,716
12370,771,708
12375,768,706
12380,773,699
12385,775,691
12390,782,686
12395,792,682
12400,806,672
12405,810,667
12410,816,670
12415,816,664
12420,836,661
12425,852,654
12430,851,650
12435,867,644
12440,869,647
12445,896,640
12450,895,639
12455,901,634
12460,911,627
12465,929,629
12470,944,630
12475,956,628
12480,959,630
12485,984,627
12490,986,625
12495,995,633
12500,1012,634
12505,1019,629
12510,1025,633
12515,1039,634
12520,1051,644
12525,1061,643
12530,1088,642
12535,1070,646
12540,1103,656
12545,1100,657
12550,1102,662
12555,1112,666
12560,1134,672
12565,1138,680
12570,1138,684
12575,1146,693
12580,1157,707
12585,1161,708
12590,1161,715
12595,1156,717
12600,1172,729
12605,1173,739
12610,1177,746
12615,1184,750
12620,1172,760
12625,1183,768
12630,1184,777
12635,1183,782
12640,1195,792
12645,1191,797
12650,1191,811
12655,1189,812
12660,1178,825
12665,1184,826
12670,1177,837
12675,1181,843
12680,1182,851
12685,1191,854
12690,1183,856
12695,1179,868
12700,1165,878
12705,1165,881
12710,1164,881
12715,1173,891
12720,1163,897
12725,1148,897
12730,1148,901
12735,1144,908
12740,1152,911
12745,1146,920
12750,1137,913
12755,1126,919
12760,1140,919
12765,1128,925
12770,1123,925
12775,1128,925
12780,1121,928
12785,1122,929
12790,1116,930
12795,1107,925
12800,1111,928
12805,1105,925
12810,1101,924
12815,1101,926
12820,1097,922
12825,1105,923
12830,1103,919
12835,1090,925
12840,1094,916
12845,1093,914
12850,1085,915
12855,1087,913
12860,1082,913
12865,1091,904
12870,1072,911
12875,1084,905
12880,1074,903
12885,1073,903
12890,1067,899
12895,1067,896
12900,1069,896
12905,1071,896
12910,1063,894
12915,1061,888
12920,1059,887
12925,1037,883
12930,1035,881
12935,1045,886
12940,1037,882
12945,1037,880
12950,1032,873
12955,1020,873
12960,1017,872
12965,1010,872
12970,1001,868
12975,1006,868
12980,983,866
12985,985,865
12990,970,859
12995,972,864
13000,960,861
13005,946,861
13010,944,858
13015,938,857
13020,928,859
13025,927,856
13030,916,855
13035,904,852
13040,891,849
13045,875,843
13050,878,842
13055,861,840
13060,865,842
13065,851,832
13070,841,834
13075,827,834
13080,832,830
13085,828,824
13090,807,823
13095,818,816
13100,798,815
13105,791,814
13110,787,808
13115,784,798
13120,784,798
13125,768,799
13130,769,793
13135,756,785
13140,763,781
13145,744,777
13150,761,774
13155,749,762
13160,749,761
13165,747,758
13170,746,747
13175,744,741
13180,749,738
13185,762,733
13190,756,727
13195,760,721
13200,760,713
13205,759,709
13210,759,705
13215,778,696
13220,784,687
13225,785,688
13230,794,682
13235,801,676
13240,806,674
13245,815,662
13250,815,663
13255,836,660
13260,849,654
13265,851,649
13270,867,647
13275,872,644
13280,891,639
13285,903,636
13290,906,637
13295,909,636
13300,928,638
13305,949,627
13310,946,630
13315,973,626
13320,974,625
13325,978,626
13330,992,632
13335,1008,629
13340,1015,635
13345,1025,636
13350,1048,635
13355,1054,641
13360,1066,646
13365,1073,649
13370,1089,651
13375,1095,653
13380,1094,654
13385,1112,662
13390,1126,670
13395,1120,679
13400,1135,680
13405,1132,687
13410,1141,693
13415,1153,702
13420,1161,711
13425,1163,711
13430,1158,724
13435,1163,728
13440,1168,736
13445,1183,746
13450,1187,752
13455,1179,757
13460,1174,774
13465,1187,772
13470,1193,787
13475,1191,795
13480,1187,800
13485,1183,811
13490,1192,812
13495,1182,824
13500,1193,827
13505,1185,833
13510,1190,846
13515,1178,846
13520,1188,852
13525,1187,867
13530,1171,866
13535,1159,874
13540,1170,884
13545,1159,891
13550,1150,894
13555,1151,896
13560,1153,906
13565,1156,902
13570,1143,908
13575,1153,915
13580,1143,911
13585,1135,915
13590,1135,921
13595,1128,917
13600,1124,922
13605,1132,927
13610,1131,931
13615,1118,927
13620,1118,922
13625,1121,931
13630,1124,925
13635,1111,926
13640,1113,929
13645,1100,930
13650,1107,921
13655,1098,924
13660,1102,927
13665,1101,925
13670,1087,916
13675,1080,915
13680,1093,918
13685,1094,914
13690,1084,913
13695,1080,911
13700,1086,906
13705,1073,904
13710,1083,903
13715,1080,905
13720,1063,903
13725,1071,900
13730,1066,895
13735,1059,888
13740,1059,894
13745,1060,892
13750,1051,887
13755,1050,892
13760,1053,888
13765,1046,882
13770,1044,880
13775,1041,878
13780,1039,874
13785,1024,879
13790,1024,876
13795,1015,868
13800,1003,865
13805,1005,869
13810,986,867
13815,990,864
13820,980,864
13825,980,861
13830,968,864
13835,956,862
13840,945,861
13845,929,855
13850,935,862
13855,927,854
13860,922,852
13865,913,850
13870,906,847
13875,885,849
13880,876,845
13885,874,843
13890,867,841
13895,853,833
13900,855,842
13905,834,833
13910,828,837
13915,825,828
13920,817,828
13925,809,825
13930,808,822
13935,799,822
13940,789,810
13945,786,811
13950,782,801
13955,778,800
13960,770,794
13965,772,790
13970,760,790
13975,760,783
13980,757,781
13985,753,775
13990,760,764
13995,753,760
14000,752,759
14005,751,754
14010,752,739
14015,748,740
14020,750,729
14025,751,728
14030,759,715
14035,764,716
14040,765,708
14045,776,702
14050,769,698
14055,785,691
14060,784,691
14065,792,681
14070,796,678
14075,806,671
14080,815,661
14085,822,661
14090,835,659
14095,842,651
14100,849,652
14105,858,642
14110,872,636
14115,894,635
14120,893,636
14125,906,635
14130,918,632
14135,943,630
14140,938,629
14145,960,628
14150,972,627
14155,973,629
14160,993,627
14165,999,631
14170,1021,632
14175,1027,635
14180,1039,633
14185,1041,636
14190,1057,642
14195,1068,643
14200,1079,646
14205,1083,653
14210,1089,651
14215,1103,666
14220,1112,664
14225,1120,666
14230,1127,675
14235,1138,679
14240,1144,688
14245,1140,699
14250,1152,700
14255,1163,709
14260,1158,713
14265,1170,720
14270,1170,733
14275,1183,739
14280,1177,746
14285,1189,750
14290,1176,763
14295,1186,773
14300,1191,773
14305,1183,790
14310,1195,792
14315,1188,801
14320,1188,809
14325,1186,815
14330,1185,821
14335,1179,827
14340,1185,835
14345,1188,845
14350,1178,851
14355,1176,864
14360,1176,863
14365,1172,877
14370,1158,874
14375,1166,881
14380,1161,889
14385,1163,894
14390,1168,900
14395,1161,898
14400,1153,907
14405,1147,909
14410,1147,910
14415,1134,918
14420,1139,914
14425,1136,925
14430,1130,925
14435,1136,921
14440,1122,922
14445,1116,925
14450,1116,929
14455,1110,929
14460,1110,927
14465,1123,929
14470,1109,928
14475,1107,930
14480,1106,927
14485,1114,929
14490,1109,923
14495,1098,926
14500,1094,921
14505,1088,920
14510,1089,918
14515,1084,919
14520,1094,915
14525,1089,911
14530,1101,915
14535,1091,910
14540,1083,907
14545,1085,903
14550,1074,906
14555,1072,903
14560,1064,899
14565,1073,893
14570,1060,890
14575,1064,897
14580,1066,894
14585,1051,891
14590,1054,886
14595,1053,880
14600,1041,882
14605,1035,878
14610,1032,879
14615,1025,878
14620,1025,876
14625,1021,874
14630,1020,870
14635,1007,870
14640,997,870
14645,1000,869
14650,987,863
14655,985,864
14660,973,863
14665,977,860
14670,960,860
14675,946,862
14680,939,863
14685,936,858
14690,930,857
14695,917,850
14700,909,854
14705,898,856
14710,890,851
14715,882,840
14720,880,840
14725,864,843
14730,871,843
14735,846,839
14740,843,835
14745,833,832
14750,822,830
14755,812,826
14760,815,822
14765,811,819
14770,796,816
14775,789,811
14780,788,807
14785,775,806
14790,775,799
14795,770,795
14800,748,795
14805,763,787
14810,757,781
14815,750,774
14820,754,769
14825,750,763
14830,751,762
14835,749,758
14840,750,746
14845,751,745
14850,755,737
14855,747,730
14860,757,721
14865,764,719
14870,760,711
14875,763,711
14880,774,706
14885,771,698
14890,778,694
14895,792,680
14900,795,674
14905,803,672
14910,811,676
14915,820,666
14920,831,662
14925,834,659
14930,854,650
14935,853,646
14940,867,646
14945,874,642
14950,882,636
14955,896,636
14960,919,637
14965,922,633
14970,928,631
14975,943,628
14980,953,627
14985,962,627
14990,980,626
14995,991,633
15000,1007,631
15005,1009,629
15010,1018,639
15015,1029,640
15020,1034,634
15025,1056,644
15030,1060,642
15035,1079,644
15040,1090,650
15045,1095,658
15050,1106,666
15055,1122,667
15060,1118,666
15065,1130,674
15070,1134,683
15075,1147,689
15080,1146,697
15085,1151,699
15090,1156,704
15095,1165,717
15100,1172,723
15105,1172,740
15110,1174,742
15115,1183,744
15120,1186,751
15125,1192,766
15130,1188,776
15135,1188,779
15140,1185,788
15145,1190,787
15150,1189,799
15155,1181,811
15160,1188,816
15165,1186,824
15170,1185,831
15175,1182,840
15180,1184,844
15185,1184,853
15190,1183,858
15195,1181,870
15200,1175,876
15205,1160,873
15210,1162,885
15215,1169,887
15220,1156,892
15225,1161,895
15230,1159,902
15235,1148,906
15240,1143,910
15245,1143,913
15250,1142,915
15255,1145,914
15260,1129,925
15265,1131,919
15270,1128,921
15275,1121,924
15280,1126,925
15285,1123,928
15290,1117,926
15295,1116,928
15300,1119,927
15305,1106,931
15310,1106,928
15315,1109,929
15320,1108,920
15325,1102,926
15330,1105,920
15335,1105,927
15340,1097,922
15345,1090,920
15350,1098,916
15355,1085,912
15360,1082,910
15365,1071,908
15370,1092,912
15375,1078,909
15380,1087,902
15385,1084,903
15390,1080,898
15395,1075,897
15400,1064,899
15405,1069,892
15410,1062,889
15415,1056,895
15420,1050,885
15425,1051,890
15430,1038,886
15435,1047,878
15440,1043,877
15445,1034,875
15450,1033,874
15455,1021,875
15460,1015,876
15465,999,878
15470,1009,865
15475,995,874
15480,994,866
15485,987,866
15490,981,868
15495,977,858
15500,963,860
15505,963,863
15510,957,856
15515,946,861
15520,933,859
15525,924,855
15530,922,854
15535,907,854
15540,904,855
15545,887,848
15550,882,845
15555,874,840
15560,861,835
15565,864,843
15570,845,839
15575,846,833
15580,830,824
15585,820,828
15590,815,824
15595,818,824
15600,796,818
15605,794,814
15610,793,816
15615,775,810
15620,776,805
15625,765,795
15630,771,800
15635,774,790
15640,754,791
15645,755,779
15650,750,777
15655,749,769
15660,739,765
15665,750,763
15670,741,756
15675,750,752
15680,745,742
15685,751,734
15690,760,732
15695,754,721
15700,757,723
15705,764,714
15710,765,713
15715,761,696
15720,778,691
15725,779,693
15730,785,686
15735,798,685
15740,815,676
15745,805,671
15750,806,657
15755,838,660
15760,842,659
15765,847,649
15770,853,654
15775,868,644
15780,871,636
15785,886,636
15790,905,637
15795,913,636
15800,926,635
15805,936,623
15810,938,630
15815,961,623
15820,971,625
15825,982,628
15830,998,629
15835,999,629
15840,1018,629
15845,1022,636
15850,1034,630
15855,1055,639
15860,1057,641
15865,1065,647
15870,1085,649
15875,1086,646
15880,1101,653
15885,1105,661
15890,1106,664
15895,1123,673
15900,1119,674
15905,1143,687
15910,1144,688
15915,1154,694
15920,1155,695
15925,1166,705
15930,1166,718
15935,1175,726
15940,1166,728
15945,1178,739
15950,1178,751
15955,1188,756
15960,1185,764
15965,1183,777
15970,1195,775
15975,1186,785
15980,1181,797
15985,1196,800
15990,1189,812
15995,1187,818
16000,1189,826
16004,1177,833
16010,1183,837
16015,1184,846
16020,1185,854
16024,1181,859
16030,1177,868
16035,1163,873
16040,1166,874
16045,1177,882
16050,1165,884
16055,1158,891
16059,1154,896
16065,1155,901
16070,1160,909
16075,1144,912
16079,1139,913
16085,1146,920
16090,1136,918
16094,1134,923
16100,1135,923
16105,1117,924
16110,1130,923
16114,1116,927
16120,1125,928
16125,1112,926
16129,1114,928
16135,1116,927
16140,1106,931
16145,1107,924
16149,1111,924
16155,1102,919
16160,1106,923
16165,1096,925
16170,1097,920
16175,1095,919
16180,1093,920
16184,1091,919
16190,1089,912
16195,1087,913
16200,1077,911
16204,1078,909
16210,1075,910
16215,1083,901
16219,1073,904
16225,1078,898
16230,1063,891
16235,1059,897
16239,1070,893
16245,1054,895
16250,1055,890
16254,1057,890
16260,1046,879
16265,1048,884
16270,1046,884
16274,1036,880
16280,1035,880
16285,1025,884
16290,1018,871
16295,1026,873
16300,1012,872
16305,1007,870
16309,1000,866
16315,987,863
16320,990,867
16325,977,868
16329,969,867
16335,970,860
16340,945,861
16344,956,859
16350,941,854
16355,939,860
16360,928,852
16364,921,851
16370,909,858
16375,898,853
16379,889,844
16385,885,844
16390,879,839
16395,869,844
16400,852,840
16405,849,838
16410,845,831
16415,833,837
16420,824,826
16425,810,825
16430,807,823
16435,805,821
16440,799,811
16445,800,812
16450,788,806
16455,772,799
16460,770,799
16465,764,789
16470,757,787
16475,763,788
16480,760,777
16485,752,773
16490,750,770
16495,747,769
16500,747,759
16505,749,752
16510,755,748
16515,764,746
16520,758,738
16525,756,729
16530,763,724
16535,758,721
16540,766,713
16545,772,706
16550,778,699
16555,777,697
16560,771,692
16565,798,689
16570,800,679
16575,809,674
16580,811,670
16585,816,668
16590,828,662
16595,837,659
16600,851,653
16605,865,647
16610,865,644
16615,873,639
16620,892,635
16625,902,638
16630,909,630
16635,920,635
16640,933,627
16645,944,629
16650,964,633
16655,970,628
16660,975,628
16665,990,633
16670,1000,629
16675,1019,636
16680,1031,636
16685,1041,629
16690,1052,637
16695,1062,641
16700,1080,646
16705,1075,644
16710,1081,646
16715,1104,659
16720,1106,657
16725,1116,671
16730,1118,665
16735,1130,675
16740,1136,686
16745,1145,684
16750,1142,698
16755,1157,709
16760,1169,712
16765,1167,716
16770,1175,723
16775,1174,737
16780,1182,741
16785,1182,749
16790,1185,757
16795,1183,766
16800,1185,775
16805,1188,780
16810,1189,788
16815,1193,794
16820,1194,804
16825,1188,812
16830,1186,819
16835,1182,830
16840,1189,834
16845,1193,841
16850,1173,850
16855,1172,859
16860,1181,860
16865,1180,867
16870,1171,874
16875,1170,878
16880,1160,881
16885,1166,889
16890,1160,894
16895,1160,897
16900,1151,900
16905,1144,909
16910,1150,908
16915,1150,912
16920,1134,920
16925,1132,918
16930,1140,920
16935,1132,923
16940,1131,929
16945,1116,923
16950,1120,926
16955,1113,927
16960,1112,930
16965,1103,930
16970,1099,928
16975,1107,928
16980,1109,928
16985,1115,925
16990,1108,924
16995,1100,925
17000,1104,924
17005,1101,929
17010,1100,924
17015,1096,918
17020,1092,922
17025,1090,916
17030,1084,916
17035,1080,910
17040,1078,909
17045,1078,911
17050,1079,905
17055,1075,902
17060,1064,898
17065,1074,896
17070,1067,892
17075,1068,897
17080,1058,888
17085,1062,882
17090,1059,889
17095,1051,888
17100,1040,877
17105,1038,883
17110,1035,878
17115,1035,881
17120,1039,878
17125,1022,872
17130,1008,882
17135,1015,874
17140,998,870
17145,1002,871
17150,991,864
17155,985,866
17160,977,866
17165,968,865
17170,960,862
17175,949,863
17180,950,859
17185,933,859
17190,938,858
17195,919,848
17200,912,851
17205,907,851
17210,891,849
17215,892,845
17220,879,843
17225,879,842
17230,859,841
17235,846,840
17240,849,831
17245,836,832
17250,829,825
17255,824,835
17260,806,824
17265,815,818
17270,807,816
17275,791,813
17280,797,808
17285,781,811
17290,777,800
17295,777,800
17300,768,793
17305,761,790
17310,767,782
17315,754,780
17320,762,773
17325,753,769
17330,746,758
17335,750,762
17340,745,754
17345,744,748
17350,747,740
17355,749,734
17360,757,727
17365,757,720
17370,765,718
17375,766,712
17380,770,708
17385,778,696
17390,783,694
17395,782,688
17400,786,684
17405,796,677
17410,806,674
17415,815,665
17420,819,663
17425,831,663
17430,841,657
17435,834,647
17440,863,649
17445,874,643
17450,883,639
17455,899,634
17460,909,634
17465,919,633
17470,922,632
17475,936,625
17480,953,630
17485,958,632
17490,976,627
17495,988,627
17500,997,630
17505,1006,631
17510,1018,632
17515,1030,635
17520,1037,630
17525,1056,640
17530,1062,637
17535,1071,646
17540,1080,645
17545,1089,652
17550,1104,651
17555,1114,661
17560,1125,665
17565,1127,672
17570,1128,682
17575,1136,682
17580,1140,695
17585,1156,704
17590,1154,701
17595,1162,709
17600,1168,718
17605,1173,726
17610,1176,732
17615,1175,741
17620,1188,750
17625,1177,760
17630,1182,768
17635,1193,777
17640,1186,782
17645,1192,788
17650,1191,799
17655,1193,805
17660,1181,813
17665,1187,817
17670,1185,827
17675,1188,831
17680,1183,842
17685,1176,849
17690,1175,858
17695,1175,862
17700,1172,871
17705,1167,872
17710,1163,877
17715,1167,881
17720,1175,889
17725,1154,895
17730,1154,900
17735,1158,903
17740,1151,911
17745,1153,910
17750,1151,913
17755,1141,914
17760,1135,922
17765,1138,922
17770,1132,919
17775,1125,923
17780,1125,927
17785,1125,933
17790,1120,927
17795,1124,928
17800,1109,925
17805,1121,925
17810,1103,932
17815,1108,930
17820,1098,927
17825,1108,926
17830,1094,924
17835,1099,921
17840,1096,920
17845,1091,926
17850,1087,922
17855,1087,914
17860,1086,918
17865,1081,913
17870,1081,913
17875,1085,911
17880,1079,906
17885,1069,905
17890,1075,899
17895,1083,899
17900,1067,897
17905,1064,896
17910,1067,896
17915,1066,886
17920,1055,894
17925,1058,886
17930,1062,890
17935,1044,884
17940,1041,882
17945,1040,879
17950,1028,877
17955,1028,877
17960,1021,871
17965,1012,871
17970,1008,872
17975,1005,869
17980,1001,867
17985,981,869
17990,993,865
17995,973,866
18000,973,862
18005,960,861
18010,953,858
18015,943,857
18020,938,855
18025,922,856
18030,923,858
18035,909,851
18040,910,849
18045,891,853
18050,885,850
18055,881,845
18060,861,840
18065,865,843
18070,865,836
18075,838,835
18080,841,834
18085,832,833
18090,828,826
18095,812,822
18100,805,817
18105,800,812
18110,790,814
18115,783,806
18120,785,809
18125,776,806
18130,764,796
18135,763,794
18140,760,783
18145,762,781
18150,754,781
18155,751,773
18160,758,770
18165,752,763
18170,742,748
18175,745,753
18180,748,747
18185,746,738
18190,749,732
18195,753,724
18200,747,719
18205,757,716
18210,765,704
18215,766,705
18220,770,701
18225,776,698
18230,786,689
18235,789,683
18240,798,676
18245,804,676
18250,814,666
18255,826,663
18260,835,653
18265,836,657
18270,847,654
18275,850,646
18280,871,640
18285,890,642
18290,904,635
18295,909,636
18300,925,629
18305,920,627
18310,938,629
18315,947,626
18320,960,629
18325,976,627
18330,978,626
18335,1002,633
18340,1012,631
18345,1029,630
18350,1021,633
18355,1039,636
18360,1055,639
18365,1066,638
18370,1070,649
18375,1085,647
18380,1087,657
18385,1103,659
18390,1106,664
18395,1110,669
18400,1122,672
18405,1132,680
18410,1131,685
18415,1151,691
18420,1158,695
18425,1159,709
18430,1162,710
18435,1171,721
18440,1174,730
18445,1168,740
18450,1182,745
18455,1182,754
18460,1183,753
18465,1185,768
18470,1198,777
18475,1192,782
18480,1183,792
18485,1193,796
18490,1187,808
18495,1191,815
18500,1186,822
18505,1185,827
18510,1178,838
18515,1187,842
18520,1186,844
18525,1181,858
18530,1176,863
18535,1182,868
18540,1165,873
18545,1162,880
18550,1165,889
18555,1157,886
18560,1163,894
18565,1169,896
18570,1151,905
18575,1149,908
18580,1143,914
18585,1148,917
18590,1137,918
18595,1136,921
18600,1136,922
18605,1128,923
18610,1126,923
18615,1126,927
18620,1125,927
18625,1120,931
18630,1106,929
18635,1107,929
18640,1105,928
18645,1116,926
18650,1119,929
18655,1098,932
18660,1108,924
18665,1100,925
18670,1095,915
18675,1098,922
18680,1099,922
18685,1099,920
18690,1090,921
18695,1090,914
18700,1089,911
18705,1087,911
18710,1079,912
18715,1081,907
18720,1076,898
18725,1078,905
18730,1073,903
18735,1071,901
18740,1063,894
18745,1057,892
18750,1063,892
18755,1057,891
18760,1050,888
18765,1052,883
18770,1048,879
18775,1047,887
18780,1038,873
18785,1020,878
18790,1030,881
18795,1023,878
18800,1013,876
18805,1007,871
18810,1000,874
18815,997,869
18820,989,866
18825,988,868
18830,969,867
18835,961,863
18840,960,861
18845,958,858
18850,948,857
18855,942,856
18860,930,855
18865,914,853
18870,905,856
18875,900,852
18880,901,851
18885,886,840
18890,876,849
18895,866,842
18900,860,841
18905,846,837
18910,838,834
18915,830,834
18920,829,830
18925,827,822
18930,815,825
18935,805,819
18940,793,816
18945,790,811
18950,788,812
18955,781,804
18960,780,802
18965,767,795
18970,764,791
18975,759,780
18980,757,780
18985,757,773
18990,753,772
18995,750,765
19000,743,759
19005,742,755
19010,748,750
19015,750,746
19020,759,740
19025,747,734
19030,749,731
19035,756,721
19040,766,719
19045,755,712
19050,754,705
19055,773,701
19060,770,692
19065,789,688
19070,786,686
19075,798,680
19080,811,666
19085,810,666
19090,825,658
19095,830,654
19100,846,652
19105,856,650
19110,862,646
19115,875,643
19120,889,636
19125,899,640
19130,913,634
19135,910,631
19140,929,629
19145,938,625
19150,952,624
19155,961,630
19160,978,631
19165,995,630
19170,984,631
19175,1013,632
19180,1010,633
19185,1036,632
19190,1046,640
19195,1055,639
19200,1063,646
19205,1073,646
19210,1080,644
19215,1088,655
19220,1105,655
19225,1115,658
19230,1121,670
19235,1122,675
19240,1135,681
19245,1145,684
19250,1142,696
19255,1161,703
19260,1158,705
19265,1164,716
19270,1174,721
19275,1180,728
19280,1177,738
19285,1174,746
19290,1182,750
19295,1178,757
19300,1191,767
19305,1187,776
19310,1188,787
19315,1189,790
19320,1182,802
19325,1186,808
19330,1190,815
19335,1187,825
19340,1186,834
19345,1188,838
19350,1191,842
19355,1179,851
19360,1184,857
19365,1176,863
19370,1169,872
19375,1168,873
19380,1168,876
19385,1161,886
19390,1163,896
19395,1161,898
19400,1159,900
19405,1155,902
19410,1155,906
19415,1150,919
19420,1147,909
19425,1137,921
19430,1135,918
19435,1140,918
19440,1131,928
19445,1126,923
19450,1124,920
19455,1122,921
19460,1124,925
19465,1118,924
19470,1121,928
19475,1112,929
19480,1112,924
19485,1111,930
19490,1102,922
19495,1099,924
19500,1098,928
19505,1104,926
19510,1091,918
19515,1093,919
19520,1095,920
19525,1085,920
19530,1088,912
19535,1085,913
19540,1084,908
19545,1087,914
19550,1081,906
19555,1080,902
19560,1073,900
19565,1065,893
19570,1073,897
19575,1071,894
19580,1065,893
19585,1070,890
19590,1055,892
19595,1058,887
19600,1044,885
19605,1047,883
19610,1043,880
19615,1031,876
19620,1033,883
19625,1027,878
19630,1023,875
19635,1014,876
19640,1006,872
19645,1001,871
19650,989,876
19655,982,866
19660,981,865
19665,971,859
19670,965,861
19675,966,857
19680,955,858
19685,952,856
19690,935,858
19695,933,859
19700,920,852
19705,909,850
19710,909,855
19715,885,849
19720,886,843
19725,870,846
19730,868,841
19735,856,845
19740,845,840
19745,844,834
19750,827,833
19755,834,831
19760,816,827
19765,801,825
19770,810,818
19775,798,817
19780,791,810
19785,791,813
19790,772,806
19795,766,796
19800,770,793
19805,762,791
19810,768,787
19815,763,785
19820,748,776
19825,756,775
19830,755,770
19835,746,762
19840,756,755
19845,749,746
19850,749,741
19855,755,737
19860,743,730
19865,752,726
19870,762,719
19875,754,715
19880,760,712
19885,779,705
19890,778,697
19895,783,693
19900,788,689
19905,790,683
19910,800,676
19915,803,668
19920,814,667
19925,819,663
19930,827,656
19935,849,653
19940,853,646
19945,862,644
19950,886,641
19955,887,644
19960,908,638
19965,903,638
19970,914,635
19975,934,631
19980,938,637
19985,950,635
19990,968,627
19995,977,625
20000,984,628
20005,1001,631
20010,1012,631
20015,1028,635
20020,1042,631
20025,1044,634
20030,1057,640
20035,1078,642
20040,1077,639
20045,1092,649
20050,1097,655
20055,1108,664
20060,1112,662
20065,1116,669
20070,1126,677
20075,1138,681
20080,1135,684
20085,1144,693
20090,1152,700
20095,1150,710
20100,1165,717
20105,1166,721
20110,1177,727
20115,1182,741
20120,1178,751
20125,1186,756
20130,1186,754
20135,1187,766
20140,1188,778
20145,1184,786
20150,1186,791
20155,1193,799
20160,1193,809
20165,1199,816
20170,1190,822
20175,1184,828
20180,1170,840
20185,1177,844
20190,1181,851
20195,1179,850
20200,1170,865
20205,1171,872
20210,1178,881
20215,1165,886
20220,1161,889
20225,1164,887
20230,1160,897
20235,1157,901
20240,1151,908
20245,1162,911
20250,1137,911
20255,1134,914
20260,1133,914
20265,1140,920
20270,1138,916
20275,1128,924
20280,1128,927
20285,1119,926
20290,1126,929
20295,1109,924
20300,1121,927
20305,1113,928
20310,1115,929
20315,1117,922
20320,1110,926
20325,1099,922
20330,1103,920
20335,1098,923
20340,1097,921
20345,1096,921
20350,1094,919
20355,1084,919
20360,1085,917
20365,1077,910
20370,1084,917
20375,1081,909
20380,1086,914
20385,1082,901
20390,1074,907
20395,1075,906
20400,1067,899
20405,1071,893
20410,1063,893
20415,1058,895
20420,1071,894
20425,1065,890
20430,1057,889
20435,1042,881
20440,1046,883
20445,1034,880
20450,1036,874
20455,1028,875
20460,1023,871
20465,1024,873
20470,1012,872
20475,1004,876
20480,1000,868
20485,994,868
20490,986,869
20495,978,865
20500,971,864
20505,978,863
20510,957,868
20515,947,856
20520,946,854
20525,937,859
20530,928,856
20535,921,849
20540,914,852
20545,897,845
20550,893,850
20555,876,847
20560,864,845
20565,864,838
20570,852,845
20575,857,840
20580,840,839
20585,824,831
20590,832,830
20595,821,818
20600,815,822
20605,806,822
20610,786,809
20615,788,812
20620,780,804
20625,774,801
20630,769,798
20635,752,796
20640,770,792
20645,760,781
20650,753,780
20655,756,775
20660,752,769
20665,747,764
20670,749,759
20675,758,754
20680,739,749
20685,757,742
20690,747,734
20695,750,731
20700,748,727
20705,761,720
20710,766,715
20715,769,710
20720,775,704
20725,778,692
20730,787,694
20735,785,684
20740,792,681
20745,799,669
20750,810,672
20755,821,666
20760,829,662
20765,837,654
20770,840,656
20775,852,647
20780,866,643
20785,879,642
20790,885,646
20795,892,634
20800,910,635
20805,928,629
20810,928,627
20815,946,630
20820,949,629
20825,967,626
20830,975,627
20835,993,629
20840,1000,628
20845,1011,630
20850,1031,640
20855,1035,634
20860,1046,640
20865,1062,642
20870,1062,641
20875,1080,641
20880,1090,651
20885,1091,655
20890,1105,661
20895,1107,663
20900,1121,669
20905,1123,678
20910,1131,684
20915,1148,690
20920,1151,698
20925,1164,701
20930,1171,708
20935,1165,714
20940,1164,722
20945,1174,734
20950,1176,742
20955,1174,744
20960,1187,749
20965,1192,764
20970,1178,768
20975,1192,774
20980,1196,783
20985,1186,795
20990,1190,805
20995,1195,807
21000,1179,813
21005,1186,825
21010,1179,828
21015,1195,840
21020,1180,851
21025,1174,852
21030,1177,856
21035,1167,863
21040,1182,870
21045,1174,877
21050,1169,882
21055,1164,883
21060,1167,894
21065,1154,899
21070,1151,894
21075,1153,906
21080,1142,909
21085,1143,913
21090,1146,915
21095,1139,914
21100,1136,920
21105,1126,920
21110,1129,923
21115,1131,929
21120,1125,928
21125,1117,929
21130,1121,930
21135,1120,924
21140,1120,924
21145,1111,926
21150,1112,928
21155,1106,934
21160,1103,924
21165,1095,924
21170,1102,923
21175,1099,920
21180,1093,925
21185,1091,917
21190,1083,916
21195,1088,913
21200,1088,914
21205,1095,914
21210,1075,907
21215,1075,903
21220,1079,907
21225,1079,909
21230,1071,898
21235,1074,899
21240,1066,896
21245,1071,889
21250,1051,894
21255,1066,893
21260,1062,891
21265,1054,885
21270,1053,883
21275,1043,888
21280,1039,880
21285,1032,879
21290,1039,873
21295,1027,875
21300,1017,879
21305,1013,875
21310,1015,866
21315,1001,873
21320,991,870
21325,990,867
21330,974,858
21335,974,866
21340,965,868
21345,960,860
21350,950,855
21355,945,861
21360,940,853
21365,924,856
21370,920,852
21375,908,855
21380,902,848
21385,890,849
21390,883,850
21395,874,838
21400,863,838
21405,859,837
21410,844,837
21415,839,834
21420,829,831
21425,819,826
21430,817,825
21435,808,825
21440,804,822
21445,796,814
21450,786,812
21455,788,809
21460,771,810
21465,770,804
21470,766,796
21475,761,790
21480,764,788
21485,766,785
21490,754,777
21495,750,769
21500,745,766
21505,751,757
21510,753,754
21515,753,750
21520,746,743
21525,755,741
21530,751,731
21535,755,725
21540,766,720
21545,751,712
21550,766,709
21555,770,705
21560,778,700
21565,783,687
21570,792,684
21575,799,684
21580,798,675
21585,807,668
21590,814,662
21595,824,662
21600,831,655
21605,843,649
21610,861,649
21615,868,641
21620,875,645
21625,888,635
21630,896,639
21635,907,630
21640,930,633
21645,935,631
21650,942,633
21655,955,628
21660,972,628
21665,985,626
21670,997,624
21675,1004,629
21680,1017,636
21685,1037,638
21690,1029,633
21695,1050,637
21700,1056,633
21705,1070,646
21710,1072,644
21715,1087,649
21720,1091,652
21725,1107,656
21730,1112,665
21735,1126,671
21740,1127,676
21745,1136,683
21750,1144,687
21755,1149,697
21760,1150,706
21765,1162,714
21770,1171,721
21775,1170,727
21780,1175,734
21785,1168,746
21790,1179,749
21795,1185,754
21800,1172,760
21805,1186,773
21810,1186,778
21815,1176,784
21820,1187,795
21825,1196,800
21830,1182,808
21835,1184,820
21840,1184,828
21845,1179,833
21850,1182,840
21855,1179,853
21860,1176,850
21865,1177,863
21870,1181,865
21875,1170,874
21880,1167,882
21885,1172,883
21890,1163,877
21895,1155,898
21900,1161,901
21905,1154,909
21910,1150,903
21915,1143,903
21920,1146,911
21925,1141,915
21930,1127,922
21935,1134,918
21940,1132,924
21945,1129,924
21950,1128,929
21955,1128,928
21960,1111,927
21965,1109,930
21970,1116,924
21975,1111,926
21980,1124,921
21985,1096,927
21990,1104,926
21995,1104,926
22000,1105,921
22005,1094,920
22010,1101,920
22015,1093,922
22020,1090,920
22025,1096,916
22030,1088,912
22035,1089,916
22040,1080,910
22045,1083,914
22050,1076,903
22055,1073,906
22060,1081,903
22065,1075,904
22070,1065,892
22075,1063,896
22080,1070,893
22085,1065,891
22090,1059,886
22095,1045,888
22100,1056,885
22105,1051,886
22110,1040,881
22115,1040,878
22120,1025,876
22125,1026,883
22130,1028,876
22135,1024,870
22140,1015,870
22145,1010,871
22150,1004,872
22155,1002,866
22160,995,859
22165,980,868
22170,975,865
22175,963,866
22180,960,856
22185,954,857
22190,933,855
22195,928,852
22200,923,857
22205,915,857
22210,918,846
22215,905,850
22220,890,847
22225,885,847
22230,871,848
22235,864,840
22240,857,840
22245,843,835
22250,835,834
22255,828,829
22260,820,827
22265,825,826
22270,807,821
22275,795,822
22280,794,815
22285,780,810
22290,779,809
22295,781,803
22300,767,801
22305,763,790
22310,762,789
22315,767,785
22320,757,784
22325,750,776
22330,755,767
22335,747,763
22340,748,758
22345,743,755
22350,754,749
22355,746,743
22360,748,738
22365,758,728
22370,749,727
22375,758,716
22380,763,714
22385,766,702
22390,772,702
22395,777,692
22400,777,688
22405,778,685
22410,802,681
22415,809,679
22420,811,669
22425,823,660
22430,831,662
22435,846,656
22440,844,652
22445,865,643
22450,878,646
22455,877,644
22460,902,637
22465,902,636
22470,914,632
22475,921,635
22480,926,630
22485,950,632
22490,963,628
22495,968,628
22500,983,623
22505,989,630
22510,1002,629
22515,1021,634
22520,1030,630
22525,1047,635
22530,1046,640
22535,1056,641
22540,1062,644
22545,1085,653
22550,1090,654
22555,1106,658
22560,1108,657
22565,1112,664
22570,1118,667
22575,1134,677
22580,1138,678
22585,1150,697
22590,1151,694
22595,1155,698
22600,1163,714
22605,1165,723
22610,1166,731
22615,1182,729
22620,1174,743
22625,1174,749
22630,1179,757
22635,1185,768
22640,1193,772
22645,1182,783
22650,1185,792
22655,1195,792
22660,1195,803
22665,1187,813
22670,1194,822
22675,1190,828
22680,1190,834
22685,1178,842
22690,1184,849
22695,1175,848
22700,1180,863
22705,1175,868
22710,1161,874
22715,1171,878
22720,1166,882
22725,1157,885
22730,1164,891
22735,1157,898
22740,1158,904
22745,1151,907
22750,1141,910
22755,1144,909
22760,1151,919
22765,1136,919
22770,1129,925
22775,1127,922
22780,1132,922
22785,1125,919
22790,1128,930
22795,1126,928
22800,1110,927
22805,1121,929
22810,1113,928
22815,1105,922
22820,1104,930
22825,1104,927
22830,1111,925
22835,1100,926
22840,1107,918
22845,1097,924
22850,1097,923
22855,1091,916
22860,1089,913
22865,1086,915
22870,1084,916
22875,1089,910
22880,1086,906
22885,1084,904
22890,1077,906
22895,1078,903
22900,1076,898
22905,1073,898
22910,1067,897
22915,1069,895
22920,1068,887
22925,1057,888
22930,1063,891
22935,1058,885
22940,1043,888
22945,1045,891
22950,1040,878
22955,1034,879
22960,1031,880
22965,1025,874
22970,1016,876
22975,1009,866
22980,1007,864
22985,1003,868
22990,992,865
22995,987,871
23000,985,865
23005,974,861
23010,971,862
23015,956,857
23020,949,860
23025,936,853
23030,937,864
23035,930,859
23040,914,852
23045,917,855
23050,902,847
23055,887,846
23060,881,844
23065,870,847
23070,862,837
23075,854,843
23080,856,846
23085,845,840
23090,828,832
23095,817,832
23100,807,831
23105,807,822
23110,808,815
23115,795,814
23120,786,809
23125,777,807
23130,772,800
23135,773,795
23140,768,792
23145,760,787
23150,754,789
23155,753,778
23160,754,770
23165,752,772
23170,748,763
23175,744,756
23180,748,749
23185,757,751
23190,756,741
23195,748,741
23200,746,728
23205,760,725
23210,770,717
23215,753,716
23220,764,705
23225,774,703
23230,777,695
23235,789,689
23240,790,690
23245,802,679
23250,815,678
23255,815,672
23260,820,668
23265,842,662
23270,847,651
23275,849,648
23280,861,649
23285,872,644
23290,879,644
23295,888,642
23300,911,638
23305,908,634
23310,930,633
23315,933,628
23320,955,624
23325,968,634
23330,974,627
23335,982,626
23340,1003,631
23345,1006,632
23350,1013,623
23355,1029,637
23360,1041,636
23365,1052,630
23370,1060,647
23375,1062,645
23380,1081,645
23385,1089,651
23390,1101,657
23395,1093,663
23400,1109,666
23405,1123,671
23410,1129,679
23415,1143,684
23420,1143,695
23425,1149,701
23430,1162,701
23435,1153,716
23440,1164,723
23445,1168,727
23450,1174,728
23455,1173,738
23460,1186,750
23465,1183,754
23470,1183,768
23475,1170,777
23480,1186,779
23485,1193,786
23490,1180,793
23495,1180,806
23500,1188,811
23505,1188,819
23510,1182,828
23515,1188,832
23520,1180,841
23525,1183,849
23530,1183,854
23535,1184,863
23540,1173,871
23545,1178,865
23550,1170,878
23555,1161,881
23560,1161,890
23565,1161,894
23570,1159,901
23575,1153,900
23580,1150,900
23585,1147,909
23590,1141,909
23595,1132,915
23600,1132,918
23605,1135,916
23610,1118,926
23615,1129,922
23620,1131,926
23625,1120,926
23630,1125,924
23635,1124,930
23640,1113,924
23645,1118,923
23650,1112,926
23655,1108,926
23660,1105,928
23665,1103,922
23670,1094,926
23675,1090,925
23680,1092,924
23685,1092,919
23690,1094,919
23695,1086,921
23700,1094,916
23705,1094,908
23710,1086,913
23715,1082,908
23720,1083,901
23725,1081,898
23730,1068,902
23735,1065,906
23740,1081,894
23745,1067,894
23750,1062,894
23755,1060,889
23760,1051,892
23765,1053,883
23770,1046,885
23775,1044,880
23780,1029,877
23785,1045,881
23790,1038,878
23795,1030,875
23800,1027,875
23805,1007,877
23810,1013,871
23815,1008,873
23820,999,868
23825,998,868
23830,980,863
23835,981,870
23840,971,865
23845,967,859
23850,953,863
23855,947,857
23860,945,856
23865,936,857
23870,925,853
23875,914,854
23880,899,853
23885,896,854
23890,894,851
23895,874,843
23900,877,844
23905,863,841
23910,849,833
23915,849,834
23920,836,831
23925,825,834
23930,822,832
23935,804,826
23940,808,823
23945,808,818
23950,793,816
23955,786,810
23960,785,804
23965,776,803
23970,769,799
23975,767,792
23980,758,788
23985,763,781
23990,753,779
23995,751,771
24000,749,765
24005,747,763
24010,752,759
24015,751,754
24020,753,746
24025,752,741
24030,748,728
24035,755,726
24040,747,722
24045,767,719
24050,763,707
24055,777,705
24060,764,699
24065,776,697
24070,780,686
24075,791,685
24080,793,677
24085,816,667
24090,812,664
24095,827,664
24100,836,659
24105,846,655
24110,851,648
24115,859,642
24120,866,639
24125,890,637
24130,901,641
24135,901,643
24140,915,634
24145,930,632
24150,940,629
24155,954,632
24160,967,629
24165,962,627
24170,998,629
24175,994,631
24180,1013,630
24185,1029,633
24190,1032,635
24195,1032,634
24200,1047,639
24205,1063,643
24210,1070,645
24215,1082,649
24220,1091,649
24225,1106,656
24230,1108,662
24235,1122,673
24240,1130,675
24245,1133,681
24250,1142,687
24255,1135,690
24260,1157,697
24265,1156,708
24270,1155,711
24275,1169,722
24280,1170,726
24285,1173,735
24290,1175,748
24295,1180,754
24300,1182,757
24305,1180,767
24310,1184,772
24315,1185,789
24320,1194,793
24325,1188,794
24330,1182,805
24335,1196,816
24340,1177,826
24345,1187,829
24350,1179,837
24355,1189,843
24360,1172,854
24365,1176,854
24370,1176,864
24375,1167,872
24380,1174,875
24385,1167,882
24390,1162,882
24395,1154,893
24400,1151,894
24405,1156,901
24410,1157,905
24415,1148,905
24420,1145,907
24425,1149,910
24430,1138,918
24435,1130,918
24440,1138,918
24445,1137,928
24450,1136,933
24455,1121,921
24460,1120,925
24465,1115,927
24470,1122,930
24475,1119,921
24480,1116,923
24485,1105,932
24490,1105,925
24495,1103,926
24500,1098,923
24505,1103,922
24510,1096,923
24515,1093,920
24520,1098,922
24525,1096,917
24530,1092,913
24535,1084,916
24540,1088,916
24545,1086,917
24550,1081,906
24555,1076,905
24560,1081,904
24565,1062,900
24570,1082,896
24575,1074,897
24580,1068,894
24585,1061,893
24590,1051,887
24595,1053,885
24600,1055,885
24605,1046,884
24610,1046,885
24615,1042,879
24620,1044,881
24625,1025,879
24630,1024,880
24635,1025,869
24640,1009,875
24645,1011,868
24650,1005,872
24655,997,872
24660,990,875
24665,988,866
24670,985,860
24675,972,867
24680,964,868
24685,965,861
24690,945,857
24695,940,858
24700,918,855
24705,938,857
24710,903,854
24715,905,851
24720,890,853
24725,891,850
24730,879,842
24735,871,843
24740,866,841
24745,852,839
24750,847,834
24755,844,830
24760,828,827
24765,817,828
24770,825,828
24775,805,815
24780,796,818
24785,790,819
24790,784,815
24795,781,803
24800,773,803
24805,776,799
24810,765,788
24815,764,788
24820,751,785
24825,753,780
24830,750,774
24835,747,763
24840,745,760
24845,746,759
24850,744,747
24855,752,750
24860,752,736
24865,744,735
24870,754,727
24875,756,719
24880,763,715
24885,765,713
24890,765,701
24895,778,696
24900,769,696
24905,777,688
24910,789,682
24915,798,672
24920,807,674
24925,821,664
24930,821,663
24935,839,659
24940,831,652
24945,854,649
24950,856,652
24955,872,643
24960,885,644
24965,902,635
24970,912,634
24975,916,630
24980,924,632
24985,943,628
24990,951,633
24995,961,629
25000,974,631
25005,981,630
25010,996,627
25015,1009,630
25020,1024,632
25025,1036,641
25030,1034,632
25035,1057,642
25040,1066,644
25045,1070,640
25050,1084,648
25055,1094,651
25060,1098,659
25065,1120,664
25070,1119,669
25075,1120,673
25080,1136,686
25085,1143,679
25090,1149,689
25095,1148,699
25100,1160,705
25105,1159,721
25110,1168,725
25115,1170,725
25120,1169,740
25125,1181,743
25130,1176,753
25135,1182,757
25140,1188,767
25145,1183,773
25150,1186,783
25155,1184,787
25160,1188,802
25165,1183,804
25170,1185,816
25175,1178,824
25180,1189,830
25185,1186,839
25190,1177,844
25195,1180,850
25200,1182,854
25205,1174,863
25210,1177,870
25215,1172,875
25220,1167,878
25225,1161,886
25230,1161,893
25235,1160,890
25240,1154,898
25245,1145,906
25250,1146,905
25255,1142,912
25260,1141,914
25265,1140,922
25270,1134,917
25275,1130,913
25280,1127,917
25285,1127,926
25290,1123,928
25295,1117,928
25300,1122,929
25305,1123,927
25310,1120,926
25315,1117,929
25320,1104,923
25325,1109,929
25330,1102,926
25335,1101,926
25340,1105,926
25345,1094,918
25350,1101,919
25355,1094,920
25360,1096,915
25365,1090,917
25370,1089,911
25375,1086,908
25380,1080,907
25385,1083,908
25390,1073,907
25395,1084,902
25400,1075,903
25405,1067,899
25410,1066,902
25415,1066,899
25420,1058,894
25425,1064,888
25430,1059,883
25435,1052,885
25440,1044,883
25445,1053,887
25450,1037,877
25455,1036,881
25460,1029,878
25465,1024,875
25470,1026,871
25475,1017,874
25480,1006,874
25485,1003,868
25490,990,869
25495,991,865
25500,986,865
25505,972,865
25510,964,865
25515,966,863
25520,954,857
25525,941,859
25530,945,861
25535,924,854
25540,912,855
25545,910,856
25550,898,856
25555,892,844
25560,892,843
25565,879,844
25570,862,848
25575,862,841
25580,860,836
25585,833,838
25590,841,830
25595,828,832
25600,821,825
25605,808,826
25610,805,820
25615,795,821
25620,788,812
25625,789,811
25630,775,804
25635,773,799
25640,771,795
25645,763,793
25650,764,788
25655,760,788
25660,753,777
25665,753,771
25670,748,767
25675,752,764
25680,753,761
25685,754,753
25690,743,746
25695,753,740
25700,747,733
25705,746,725
25710,758,728
25715,760,718
25720,768,705
25725,774,702
25730,776,703
25735,781,693
25740,794,691
25745,781,681
25750,800,677
25755,807,666
25760,820,662
25765,820,654
25770,830,659
25775,842,650
25780,846,649
25785,858,647
25790,881,642
25795,877,639
25800,894,636
25805,910,638
25810,920,633
25815,938,631
25820,933,634
25825,954,625
25830,963,625
25835,983,628
25840,992,625
25845,991,631
25850,1012,631
25855,1019,634
25860,1036,636
25865,1040,631
25870,1058,643
25875,1066,640
25880,1075,639
25885,1082,653
25890,1090,657
25895,1100,659
25900,1112,661
25905,1126,666
25910,1135,671
25915,1127,681
25920,1136,685
25925,1135,688
25930,1149,705
25935,1156,708
25940,1153,715
25945,1164,727
25950,1175,730
25955,1171,733
25960,1177,740
25965,1183,751
25970,1181,761
25975,1194,770
25980,1184,776
25985,1177,787
25990,1183,787
25995,1179,804
26000,1182,808
26005,1181,817
26010,1186,822
26015,1185,829
26020,1184,837
26025,1182,840
26030,1180,851
26035,1179,860
26040,1175,862
26045,1172,872
26050,1164,880
26055,1178,880
26060,1173,885
26065,1166,893
26070,1163,900
26075,1152,896
26080,1153,904
26085,1151,904
26090,1153,911
26095,1147,916
26100,1137,915
26105,1136,924
26110,1126,918
26115,1128,923
26120,1128,930
26125,1120,930
26130,1114,929
26135,1122,923
26140,1111,927
26145,1118,929
26150,1102,924
26155,1117,931
26160,1110,920
26165,1116,926
26170,1090,924
26175,1107,926
26180,1101,920
26185,1100,923
26190,1102,923
26195,1102,919
26200,1081,917
26205,1094,914
26210,1083,908
26215,1083,918
26220,1073,910
26225,1076,901
26230,1086,906
26235,1073,898
26240,1073,893
26245,1066,899
26250,1066,895
26255,1072,891
26260,1059,894
26265,1054,892
26270,1054,888
26275,1049,885
26280,1048,880
26285,1046,880
26290,1029,875
26295,1032,875
26300,1023,873
26305,1017,871
26310,1016,871
26315,1016,870
26320,1005,871
26325,1004,871
26330,983,869
26335,980,864
26340,975,863
26345,967,863
26350,960,860
26355,951,860
26360,941,855
26365,938,859
26370,935,855
26375,920,853
26380,906,850
26385,892,848
26390,897,850
26395,891,851
26400,878,840
26405,869,841
26410,851,841
26415,852,839
26420,847,836
26425,834,831
26430,827,828
26435,813,824
26440,810,819
26445,806,819
26450,800,816
26455,797,813
26460,785,803
26465,778,804
26470,767,799
26475,766,799
26480,765,795
26485,750,794
26490,758,778
26495,753,771
26500,749,771
26505,743,769
26510,744,762
26515,743,756
26520,752,754
26525,741,739
26530,751,740
26535,759,735
26540,752,724
26545,752,718
26550,762,712
26555,760,709
26560,767,705
26565,768,700
26570,787,693
26575,780,681
26580,792,680
26585,799,679
26590,804,670
26595,817,666
26600,832,661
26605,839,655
26610,847,654
26615,846,654
26620,863,640
26625,876,639
26630,894,636
26635,891,643
26640,917,636
26645,923,632
26650,928,627
26655,939,635
26660,963,627
26665,965,623
26670,979,628
26675,987,626
26680,998,627
26685,1017,630
26690,1025,627
26695,1039,636
26700,1042,640
26705,1055,639
26710,1066,641
26715,1082,644
26720,1087,649
26725,1092,654
26730,1098,660
26735,1119,661
26740,1117,673
26745,1126,677
26750,1128,687
26755,1134,688
26760,1152,691
26765,1151,697
26770,1155,707
26775,1166,714
26780,1174,722
26785,1180,730
26790,1182,737
26795,1183,745
26800,1175,752
26805,1185,759
26810,1181,773
26815,1185,779
26820,1184,785
26825,1189,796
26830,1187,799
26835,1195,813
26840,1186,820
26845,1188,821
26850,1184,833
26855,1177,839
26860,1181,847
26865,1181,851
26870,1176,857
26875,1173,863
26880,1178,869
26885,1177,875
26890,1163,877
26895,1165,890
26900,1167,894
26905,1154,896
26910,1165,901
26915,1149,905
26920,1151,907
26925,1137,910
26930,1137,913
26935,1135,918
26940,1133,924
26945,1128,922
26950,1137,924
26955,1129,922
26960,1121,927
26965,1127,926
26970,1116,928
26975,1118,926
26980,1122,931
26985,1116,922
26990,1112,929
26995,1107,926
27000,1098,923
27005,1106,928
27010,1098,927
27015,1095,925
27020,1092,918
27025,1085,922
27030,1099,920
27035,1086,917
27040,1092,910
27045,1088,909
27050,1085,909
27055,1081,905
27060,1080,904
27065,1072,901
27070,1075,900
27075,1075,896
27080,1070,898
27085,1060,891
27090,1064,889
27095,1057,887
27100,1059,890
27105,1067,889
27110,1043,885
27115,1048,879
27120,1043,885
27125,1031,875
27130,1028,881
27135,1030,875
27140,1020,871
27145,1016,874
27150,1013,868
27155,1008,869
27160,995,867
27165,982,868
27170,981,866
27175,980,865
27180,961,862
27185,963,861
27190,955,860
27195,942,852
27200,935,855
27205,922,853
27210,913,859
27215,902,856
27220,899,850
27225,890,844
27230,889,845
27235,877,844
27240,874,842
27245,857,836
27250,845,837
27255,838,833
27260,823,833
27265,822,830
27270,814,827
27275,815,827
27280,801,815
27285,802,807
27290,792,810
27295,789,811
27300,770,803
27305,772,800
27310,769,791
27315,766,788
27320,756,783
27325,758,780
27330,753,780
27335,746,770
27340,757,767
27345,743,760
27350,741,757
27355,754,753
27360,746,742
27365,746,737
27370,759,732
27375,744,729
27380,765,725
27385,774,717
27390,762,708
27395,780,706
27400,774,699
27405,787,689
27410,793,687
27415,795,678
27420,807,675
27425,812,670
27430,819,666
27435,821,659
27440,844,656
27445,851,653
27450,857,647
27455,866,642
27460,874,646
27465,888,639
27470,903,636
27475,907,635
27480,919,629
27485,932,629
27490,954,629
27495,949,635
27500,967,625
27505,974,629
27510,985,627
27515,1000,633
27520,1014,629
27525,1025,631
27530,1040,638
27535,1054,639
27540,1060,638
27545,1062,643
27550,1084,650
27555,1082,650
27560,1085,660
27565,1100,659
27570,1113,662
27575,1128,673
27580,1127,677
27585,1137,688
27590,1145,697
27595,1153,695
27600,1153,707
27605,1156,708
27610,1165,713
27615,1166,728
27620,1178,738
27625,1173,739
27630,1177,746
27635,1179,752
27640,1186,755
27645,1185,771
27650,1182,775
27655,1190,788
27660,1192,789
27665,1186,803
27670,1193,812
27675,1189,821
27680,1187,821
27685,1187,833
27690,1186,847
27695,1185,845
27700,1183,855
27705,1182,860
27710,1177,867
27715,1174,876
27720,1165,874
27725,1162,879
27730,1165,889
27735,1168,894
27740,1164,896
27745,1164,899
27750,1151,901
27755,1142,907
27760,1147,912
27765,1139,917
27770,1139,918
27775,1136,920
27780,1137,921
27785,1124,919
27790,1129,928
27795,1132,932
27800,1122,929
27805,1112,926
27810,1117,929
27815,1114,931
27820,1101,925
27825,1104,928
27830,1113,928
27835,1100,923
27840,1102,928
27845,1092,917
27850,1092,924
27855,1086,918
27860,1092,915
27865,1088,917
27870,1083,914
27875,1095,914
27880,1094,913
27885,1079,914
27890,1083,907
27895,1079,905
27900,1080,902
27905,1081,900
27910,1062,892
27915,1063,893
27920,1067,892
27925,1062,891
27930,1058,891
27935,1055,887
27940,1046,889
27945,1047,883
27950,1035,887
27955,1041,883
27960,1037,878
27965,1024,874
27970,1021,878
27975,1013,868
27980,1006,873
27985,997,870
27990,1001,869
27995,986,866
28000,990,863
28005,980,864
28010,969,866
28015,976,865
28020,955,854
28025,954,859
28030,939,861
28035,934,861
28040,932,852
28045,907,852
28050,902,851
28055,908,850
28060,885,843
28065,889,852
28070,873,847
28075,851,841
28080,859,840
28085,848,843
28090,836,836
28095,826,831
28100,821,829
28105,800,827
28110,806,820
28115,798,821
28120,799,819
28125,780,812
28130,784,806
28135,776,808
28140,772,798
28145,769,789
28150,755,787
28155,768,786
28160,764,782
28165,763,775
28170,751,769
28175,749,771
28180,748,761
28185,747,753
28190,743,748
28195,736,746
28200,752,735
28205,756,730
28210,761,728
28215,761,717
28220,755,719
28225,768,709
28230,771,701
28235,768,695
28240,785,688
28245,781,686
28250,790,679
28255,801,673
28260,813,671
28265,815,662
28270,832,661
28275,836,654
28280,845,654
28285,862,646
28290,862,641
28295,866,639
28300,891,637
28305,897,635
28310,906,625
28315,930,631
28320,938,629
28325,952,634
28330,965,627
28335,977,630
28340,983,630
28345,995,630
28350,1007,624
28355,1019,625
28360,1027,635
28365,1040,631
28370,1032,635
28375,1062,642
28380,1074,644
28385,1088,648
28390,1090,652
28395,1093,653
28400,1111,662
28405,1116,665
28410,1115,676
28415,1136,683
28420,1140,681
28425,1142,686
28430,1145,694
28435,1152,705
28440,1147,713
28445,1162,720
28450,1176,725
28455,1171,735
28460,1169,743
28465,1186,744
28470,1178,761
28475,1179,766
28480,1188,773
28485,1183,779
28490,1187,786
28495,1184,797
28500,1189,804
28505,1181,809
28510,1189,819
28515,1181,825
28520,1187,835
28525,1180,836
28530,1181,845
28535,1181,855
28540,1172,859
28545,1178,863
28550,1181,870
28555,1167,876
28560,1163,883
28565,1162,886
28570,1156,895
28575,1153,897
28580,1162,903
28585,1153,904
28590,1157,913
28595,1146,907
28600,1138,916
28605,1138,917
28610,1136,923
28615,1135,926
28620,1127,924
28625,1128,922
28630,1131,924
28635,1115,930
28640,1120,926
28645,1120,928
28650,1126,933
28655,1110,927
28660,1109,919
28665,1103,929
28670,1105,927
28675,1105,928
28680,1103,925
28685,1090,918
28690,1096,918
28695,1099,921
28700,1095,916
28705,1090,911
28710,1092,910
28715,1086,911
28720,1084,909
28725,1075,903
28730,1083,899
28735,1073,901
28740,1081,898
28745,1078,893
28750,1068,891
28755,1064,895
28760,1068,895
28765,1068,892
28770,1059,889
28775,1043,883
28780,1054,881
28785,1036,880
28790,1035,875
28795,1032,879
28800,1027,876
28805,1017,881
28810,1016,871
28815,1011,874
28820,1002,865
28825,990,866
28830,994,866
28835,975,866
28840,975,867
28845,966,861
28850,963,861
28855,949,862
28860,948,857
28865,935,853
28870,937,857
28875,924,851
28880,914,856
28885,908,851
28890,896,851
28895,886,848
28900,867,846
28905,871,842
28910,869,837
28915,856,846
28920,856,840
28925,831,836
28930,826,838
28935,826,823
28940,822,830
28945,805,822
28950,800,823
28955,801,812
28960,779,812
28965,785,806
28970,780,799
28975,771,794
28980,765,794
28985,767,790
28990,764,778
28995,759,779
29000,757,774
29005,756,775
29010,752,765
29015,761,760
29020,733,754
29025,748,748
29030,756,738
29035,749,739
29040,753,730
29045,750,725
29050,748,723
29055,761,713
29060,775,709
29065,768,700
29070,776,695
29075,783,693
29080,789,686
29085,792,678
29090,804,676
29095,821,667
29100,812,660
29105,834,660
29110,833,655
29115,853,650
29120,859,650
29125,877,642
29130,883,644
29135,895,639
29140,899,635
29145,910,635
29150,924,638
29155,936,627
29160,954,630
29165,972,628
29170,971,627
29175,991,630
29180,997,626
29185,1004,624
29190,1016,630
29195,1030,632
29200,1033,638
29205,1060,640
29210,1065,641
29215,1073,641
29220,1077,647
29225,1083,652
29230,1111,657
29235,1104,657
29240,1122,667
29245,1120,671
29250,1137,679
29255,1140,682
29260,1134,690
29265,1150,696
29270,1152,706
29275,1155,708
29280,1165,716
29285,1162,725
29290,1174,735
29295,1170,741
29300,1174,743
29305,1169,757
29310,1186,765
29315,1185,771
29320,1187,783
29325,1186,786
29330,1187,800
29335,1193,800
29340,1181,814
29345,1192,826
29350,1184,822
29355,1184,833
29360,1178,837
29365,1181,848
29370,1172,855
29375,1176,866
29380,1177,866
29385,1172,875
29390,1170,879
29395,1168,884
29400,1164,888
29405,1157,895
29410,1151,898
29415,1156,901
29420,1154,909
29425,1157,905
29430,1145,910
29435,1140,911
29440,1140,917
29445,1136,921
29450,1135,918
29455,1128,923
29460,1132,929
29465,1126,933
29470,1125,922
29475,1121,925
29480,1119,928
29485,1113,932
29490,1110,923
29495,1103,927
29500,1096,921
29505,1108,924
29510,1101,924
29515,1107,919
29520,1095,922
29525,1092,923
29530,1093,915
29535,1095,914
29540,1095,907
29545,1080,910
29550,1087,906
29555,1079,910
29560,1084,904
29565,1086,903
29570,1080,902
29575,1071,898
29580,1073,892
29585,1064,896
29590,1073,895
29595,1053,891
29600,1055,888
29605,1052,888
29610,1052,890
29615,1042,880
29620,1039,883
29625,1040,880
29630,1033,876
29635,1019,875
29640,1017,875
29645,1022,876
29650,1015,869
29655,1002,871
29660,998,867
29665,1001,869
29670,977,862
29675,982,870
29680,970,861
29685,964,860
29690,955,862
29695,939,855
29700,941,859
29705,929,850
29710,909,851
29715,915,849
29720,909,851
29725,894,849
29730,883,850
29735,877,852
29740,869,841
29745,871,839
29750,863,841
29755,851,838
29760,834,827
29765,830,832
29770,821,831
29775,818,835
29780,809,825
29785,792,815
29790,798,814
29795,792,810
29800,782,809
29805,776,795
29810,766,800
29815,763,794
29820,767,789
29825,751,773
29830,754,784
29835,760,772
29840,762,772
29845,758,760
29850,753,760
29855,750,748
29860,743,751
29865,750,744
29870,745,735
29875,758,722
29880,753,723
29885,760,721
29890,753,714
29895,773,699
29900,772,704
29905,776,690
29910,773,689
29915,791,681
29920,801,681
29925,796,674
29930,805,668
29935,810,666
29940,830,658
29945,842,657
29950,842,651
29955,857,647
29960,859,643
29965,895,638
29970,894,637
29975,907,630
29980,918,636
29985,933,634
29990,934,632
29995,951,624
30000,964,626
30005,970,625
30010,979,626
30015,994,629
30020,1006,634
30025,1013,630
30030,1035,633
30035,1033,636
30040,1050,635
30045,1062,639
30050,1070,646
30055,1078,649
30060,1100,651
30065,1094,656
30070,1110,657
30075,1106,668
30080,1131,675
30085,1128,678
30090,1148,685
30095,1141,693
30100,1154,693
30105,1160,701
30110,1158,712
30115,1163,719
30120,1176,728
30125,1179,733
30130,1173,740
30135,1184,757
30140,1175,758
30145,1180,762
30150,1181,778
30155,1189,780
30160,1185,792
30165,1187,797
30170,1180,803
30175,1186,813
30180,1182,817
30185,1173,828
30190,1175,839
30195,1176,839
30200,1176,849
30205,1184,854
30210,1170,856
30215,1173,862
30220,1164,880
30225,1161,877
30230,1168,883
30235,1160,891
30240,1159,892
30245,1157,903
30250,1157,902
30255,1159,908
30260,1151,910
30265,1138,914
30270,1143,912
30275,1145,923
30280,1134,922
30285,1134,926
30290,1120,921
30295,1126,929
30300,1120,922
30305,1118,929
30310,1114,928
30315,1119,926
30320,1112,934
30325,1116,922
30330,1097,924
30335,1107,927
30340,1104,924
30345,1104,925
30350,1097,924
30355,1103,917
30360,1087,922
30365,1092,919
30370,1086,916
30375,1090,913
30380,1086,918
30385,1097,907
30390,1090,906
30395,1080,909
30400,1079,899
30405,1084,901
30410,1077,900
30415,1065,898
30420,1071,893
30425,1065,891
30430,1068,892
30435,1065,889
30440,1050,887
30445,1058,888
30450,1047,880
30455,1049,880
30460,1036,877
30465,1031,873
30470,1022,878
30475,1013,877
30480,1021,866
30485,1016,871
30490,995,875
30495,996,865
30500,989,869
30505,980,865
30510,978,864
30515,965,862
30520,966,859
30525,959,861
30530,946,858
30535,940,854
30540,934,857
30545,920,851
30550,910,852
30555,905,856
30560,898,850
30565,885,850
30570,881,849
30575,871,845
30580,867,842
30585,853,841
30590,841,842
30595,840,833
30600,836,827
30605,825,829
30610,816,824
30615,811,828
30620,797,812
30625,791,816
30630,785,814
30635,783,804
30640,773,800
30645,775,798
30650,765,792
30655,763,784
30660,761,788
30665,752,779
30670,751,774
30675,756,765
30680,743,761
30685,750,753
30690,763,752
30695,744,749
30700,743,738
30705,746,740
30710,762,729
30715,760,718
30720,760,712
30725,761,710
30730,754,705
30735,775,704
30740,773,697
30745,781,693
30750,789,687
30755,800,675
30760,807,676
30765,821,666
30770,828,661
30775,827,660
30780,839,656
30785,852,656
30790,865,644
30795,868,644
30800,884,641
30805,897,642
30810,905,629
30815,917,634
30820,933,631
30825,942,633
30830,949,627
30835,965,628
30840,966,626
30845,980,628
30850,1002,631
30855,1011,632
30860,1014,631
30865,1033,634
30870,1040,640
30875,1056,640
30880,1055,642
30885,1074,646
30890,1087,651
30895,1094,654
30900,1099,654
30905,1106,662
30910,1124,670
30915,1130,672
30920,1137,678
30925,1141,686
30930,1147,688
30935,1153,702
30940,1147,706
30945,1166,715
30950,1161,719
30955,1169,728
30960,1175,732
30965,1177,742
30970,1183,750
30975,1180,756
30980,1189,770
30985,1184,778
30990,1195,782
30995,1196,789
31000,1189,799
31005,1189,807
31010,1187,814
31015,1191,823
31020,1185,832
31025,1180,836
31030,1171,845
31035,1185,848
31040,1185,859
31045,1184,863
31050,1177,872
31055,1176,874
31060,1166,875
31065,1171,891
31070,1169,896
31075,1164,893
31080,1153,900
31085,1154,899
31090,1156,907
31095,1147,907
31100,1138,914
31105,1133,909
31110,1147,921
31115,1132,922
31120,1135,922
31125,1126,924
31130,1117,927
31135,1126,930
31140,1113,925
31145,1121,928
31150,1112,921
31155,1119,937
31160,1108,929
31165,1107,928
31170,1099,923
31175,1111,926
31180,1099,921
31185,1097,927
31190,1094,928
31195,1092,923
31200,1079,917
31205,1091,911
31210,1092,914
31215,1085,914
31220,1088,910
31225,1075,908
31230,1076,911
31235,1080,902
31240,1068,896
31245,1075,897
31250,1068,894
31255,1065,892
31260,1064,891
31265,1054,890
31270,1058,887
31275,1059,884
31280,1046,883
31285,1034,891
31290,1048,879
31295,1033,881
31300,1035,880
31305,1021,881
31310,1008,870
31315,1009,870
31320,1003,874
31325,1006,869
31330,1002,869
31335,990,867
31340,969,861
31345,970,863
31350,968,859
31355,961,859
31360,954,860
31365,940,855
31370,937,854
31375,932,852
31380,925,856
31385,915,849
31390,897,847
31395,895,849
31400,875,850
31405,882,846
31410,868,845
31415,863,835
31420,850,839
31425,842,837
31430,833,828
31435,828,826
31440,819,824
31445,817,823
31450,806,822
31455,804,819
31460,792,814
31465,797,810
31470,779,810
31475,776,806
31480,767,797
31485,759,789
31490,765,785
31495,762,783
31500,754,776
31505,750,773
31510,748,769
31515,743,761
31520,752,755
31525,744,748
31530,756,736
31535,741,737
31540,745,734
31545,753,728
31550,755,719
31555,765,720
31560,771,715
31565,771,705
31570,777,694
31575,778,693
31580,785,684
31585,788,687
31590,802,676
31595,804,674
31600,815,669
31605,822,660
31610,837,660
31615,844,650
31620,841,649
31625,857,649
31630,872,643
31635,879,638
31640,902,639
31645,914,633
31650,930,634
31655,933,631
31660,943,629
31665,954,634
31670,960,624
31675,974,632
31680,987,630
31685,999,632
31690,1003,630
31695,1024,634
31700,1035,630
31705,1052,632
31710,1045,631
31715,1064,637
31720,1078,651
31725,1088,647
31730,1092,658
31735,1108,658
31740,1110,666
31745,1118,671
31750,1128,676
31755,1136,680
31760,1143,684
31765,1146,691
31770,1147,700
31775,1152,710
31780,1160,715
31785,1164,722
31790,1175,730
31795,1169,737
31800,1174,745
31805,1186,754
31810,1172,768
31815,1180,765
31820,1185,774
31825,1181,784
31830,1193,795
31835,1191,798
31840,1184,809
31845,1186,817
31850,1182,820
31855,1185,829
31860,1188,842
31865,1184,839
31870,1174,849
31875,1182,857
31880,1177,861
31885,1167,872
31890,1177,874
31895,1166,878
31900,1175,888
31905,1155,894
31910,1155,896
31915,1166,900
31920,1153,902
31925,1142,910
31930,1144,906
31935,1148,917
31940,1137,917
31945,1129,918
31950,1138,925
31955,1138,923
31960,1121,923
31965,1115,922
31970,1116,927
31975,1120,927
31980,1122,931
31985,1114,930
31990,1112,930
31995,1110,929
32000,1110,931
32005,1102,925
32009,1096,925
32015,1094,923
32020,1101,925
32025,1091,917
32030,1093,918
32034,1097,919
32040,1090,913
32045,1090,915
32049,1084,909
32055,1082,909
32060,1081,907
32064,1078,906
32070,1077,904
32075,1074,902
32080,1068,898
32085,1071,892
32090,1071,897
32095,1061,891
32100,1060,888
32104,1057,884
32110,1048,879
32115,1052,886
32119,1045,881
32125,1039,883
32130,1033,882
32134,1030,873
32140,1026,874
32145,1015,877
32150,1016,868
32155,1011,874
32159,1003,873
32165,999,868
32170,993,863
32174,980,863
32180,972,865
32185,969,864
32189,963,858
32195,956,856
32200,944,857
32205,943,853
32210,920,858
32215,916,851
32220,908,850
32225,899,848
32229,887,844
32235,892,846
32240,886,836
32244,860,840
32250,864,836
32255,853,842
32259,847,836
32265,838,825
32270,826,829
32275,817,829
32280,810,827
32284,804,821
32290,795,822
32295,791,814
32299,789,809
32305,780,805
32310,773,806
32314,768,794
32320,761,793
32325,763,789
32330,756,785
32335,760,776
32340,737,776
32345,746,767
32350,746,762
32354,759,757
32360,745,751
32365,748,743
32369,734,740
32375,738,733
32380,760,729
32384,759,723
32390,752,718
32395,764,714
32400,766,700
32405,765,703
32409,775,689
32415,781,686
32420,787,674
32424,796,674
32430,807,674
32435,823,666
32439,823,661
32445,840,659
32450,838,649
32455,853,649
32460,863,641
32465,883,648
32470,882,643
32475,904,634
32479,910,629
32485,919,633
32490,936,630
32494,945,627
32500,954,625
32505,966,627
32509,980,631
32515,990,626
32520,1006,625
32525,1011,627
32530,1027,627
32534,1030,631
32540,1052,641
32545,1056,644
32549,1073,644
32555,1070,652
32560,1086,653
32564,1088,661
32570,1101,662
32575,1109,669
32580,1122,665
32585,1129,680
32590,1135,682
32595,1137,688
32600,1151,695
32604,1149,704
32610,1162,709
32615,1163,715
32619,1164,722
32625,1180,728
32630,1183,741
32634,1184,744
32640,1185,758
32645,1182,762
32650,1191,773
32655,1182,782
32659,1189,788
32665,1185,794
32670,1186,805
32674,1180,806
32680,1179,817
32685,1186,821
32689,1184,827
32695,1183,838
32700,1171,846
32705,1181,851
32710,1166,857
32715,1171,858
32720,1174,866
32725,1171,876
32729,1168,877
32735,1161,887
32740,1158,892
32744,1154,900
32750,1163,902
32755,1159,911
32759,1140,904
32765,1146,917
32770,1142,910
32775,1137,917
32780,1128,921
32785,1138,926
32790,1128,922
32795,1128,926
32800,1125,925
32805,1124,924
32810,1127,928
32815,1118,930
32820,1110,927
32825,1111,924
32830,1121,933
32835,1107,929
32840,1109,925
32845,1103,924
32850,1103,926
32855,1102,923
32860,1087,919
32865,1101,920
32870,1094,914
32875,1093,917
32880,1101,915
32885,1091,912
32890,1074,914
32895,1075,906
32900,1078,903
32905,1072,902
32910,1076,901
32915,1078,898
32920,1061,896
32925,1069,896
32930,1055,890
32935,1055,897
32940,1058,892
32945,1046,889
32950,1056,885
32955,1043,882
32960,1039,878
32965,1029,874
32970,1028,875
32975,1021,872
32980,1023,870
32985,1017,876
32990,1002,864
32995,999,873
33000,997,867
33005,986,864
33010,989,863
33015,967,862
33020,970,862
33025,951,859
33030,956,855
33035,945,860
33040,922,860
33045,926,856
33050,923,855
33055,914,857
33060,901,848
33065,888,848
33070,891,848
33075,883,849
33080,866,845
33085,858,840
33090,854,838
33095,849,833
33100,825,836
33105,820,826
33110,814,830
33115,807,824
33120,801,819
33125,802,814
33130,777,813
33135,787,809
33140,783,804
33145,773,800
33150,769,796
33155,765,793
33160,770,791
33165,766,784
33170,751,776
33175,744,767
33180,747,768
33185,750,762
33190,752,752
33195,748,747
33200,749,743
33205,745,735
33210,744,734
33215,753,723
33220,751,719
33225,762,715
33230,758,708
33235,765,706
33240,771,699
33245,775,690
33250,785,684
33255,791,674
33260,798,676
33265,814,676
33270,807,671
33275,823,660
33280,840,654
33285,856,649
33290,849,644
33295,854,649
33300,879,646
33305,888,644
33310,903,641
33315,901,629
33320,918,631
33325,930,635
33330,942,628
33335,956,632
33340,979,634
33345,981,629
33350,991,620
33355,1002,630
33360,1020,627
33365,1029,628
33370,1027,632
33375,1045,637
33380,1048,639
33385,1061,645
33390,1075,645
33395,1081,649
33400,1100,660
33405,1101,658
33410,1120,666
33415,1122,673
33420,1124,682
33425,1131,682
33430,1134,691
33435,1153,700
33440,1156,701
33445,1156,713
33450,1158,714
33455,1165,728
33460,1174,734
33465,1174,742
33470,1181,751
33475,1181,750
33480,1181,768
33485,1179,767
33490,1185,771
33495,1177,789
33500,1200,797
33505,1190,806
33510,1184,811
33515,1181,813
33520,1186,827
33525,1187,836
33530,1191,843
33535,1182,846
33540,1180,854
33545,1186,856
33550,1172,864
33555,1169,867
33560,1172,879
33565,1168,881
33570,1162,893
33575,1159,889
33580,1163,895
33585,1158,899
33590,1152,905
33595,1151,907
33600,1150,916
33605,1146,912
33610,1136,918
33615,1141,919
33620,1137,922
33625,1133,921
33630,1129,925
33635,1124,927
33640,1117,926
33645,1122,927
33650,1123,928
33655,1103,922
33660,1109,925
33665,1112,922
33670,1103,924
33675,1098,929
33680,1098,920
33685,1111,925
33690,1105,921
33695,1093,920
33700,1097,919
33705,1093,918
33710,1094,909
33715,1077,913
33720,1086,910
33725,1080,908
33730,1075,907
33735,1086,902
33740,1084,900
33745,1078,904
33750,1071,895
33755,1065,898
33760,1059,895
33765,1057,898
33770,1057,891
33775,1059,888
33780,1060,884
33785,1046,890
33790,1051,884
33795,1043,881
33800,1037,878
33805,1025,877
33810,1026,869
33815,1025,874
33820,999,871
33825,1005,869
33830,1007,864
33835,991,870
33840,988,869
33845,977,869
33850,976,866
33855,968,861
33860,956,864
33865,948,857
33870,930,858
33875,929,852
33880,923,850
33885,919,856
33890,901,852
33895,899,844
33900,897,847
33905,878,848
33910,875,840
33915,860,838
33920,857,839
33925,853,834
33930,841,836
33935,833,835
33940,817,832
33945,818,829
33950,810,824
33955,805,823
33960,802,816
33965,794,816
33970,788,812
33975,780,807
33980,764,799
33985,763,799
33990,762,786
33995,760,784
