timestamp_ms,ir_finger,ir_toe
0,1045,683
5,1053,691
10,1062,697
15,1069,699
20,1080,702
25,1079,711
30,1101,713
35,1105,723
40,1115,723
45,1124,731
50,1131,742
55,1134,747
60,1141,752
65,1141,758
70,1142,765
75,1165,768
80,1162,783
85,1162,782
90,1160,789
95,1165,792
100,1176,796
105,1178,804
110,1177,819
115,1194,811
120,1196,828
125,1192,831
130,1194,841
135,1187,846
140,1184,846
145,1192,850
150,1183,856
155,1181,858
160,1180,864
165,1185,871
170,1179,876
175,1187,878
180,1189,879
185,1183,889
190,1170,896
195,1180,896
200,1170,895
205,1162,900
210,1162,899
215,1164,899
220,1164,905
225,1157,904
230,1160,909
235,1149,910
240,1151,908
245,1153,913
250,1147,913
255,1140,912
260,1137,913
265,1133,910
270,1137,911
275,1127,914
280,1133,911
285,1124,907
290,1115,910
295,1115,913
300,1111,907
305,1119,910
310,1119,911
315,1115,904
320,1115,901
325,1105,902
330,1098,898
335,1104,899
340,1108,894
345,1110,893
350,1102,897
355,1087,890
360,1094,888
365,1088,891
370,1088,883
375,1092,878
380,1094,892
385,1085,881
390,1092,883
395,1087,880
400,1083,877
405,1083,877
410,1062,874
415,1069,873
420,1064,872
425,1076,865
430,1059,865
435,1055,869
440,1063,867
445,1060,866
450,1054,865
455,1050,860
460,1040,860
465,1048,860
470,1034,858
475,1034,858
480,1026,853
485,1027,852
490,1016,855
495,1012,851
500,1012,852
505,1005,851
510,999,852
515,993,847
520,982,849
525,973,840
530,974,847
535,970,843
540,951,841
545,950,840
550,949,840
555,939,836
560,931,835
565,918,833
570,908,833
575,900,827
580,899,832
585,902,821
590,883,818
595,872,821
600,874,822
605,866,816
610,855,815
615,844,800
620,832,804
625,825,804
630,820,797
635,823,793
640,806,793
645,807,792
650,794,784
655,798,776
660,784,773
665,783,775
670,783,765
675,761,764
680,767,756
685,757,753
690,764,752
695,760,742
700,762,742
705,749,734
710,757,729
715,741,729
720,748,725
725,759,717
730,748,714
735,754,706
740,750,702
745,745,701
750,753,697
755,746,693
760,759,689
765,755,688
770,764,677
775,767,672
780,780,671
785,778,671
790,790,663
795,793,665
800,799,662
805,801,658
810,811,658
815,822,655
820,828,649
825,833,650
830,844,650
835,853,654
840,864,646
845,867,653
850,882,649
855,902,652
860,898,651
865,912,655
870,923,654
875,933,656
880,947,656
885,957,660
890,975,662
895,978,665
900,985,660
905,998,674
910,1001,672
915,1016,673
920,1035,682
925,1046,686
930,1046,689
935,1063,692
940,1068,700
945,1071,702
950,1081,706
955,1097,714
960,1099,717
965,1111,725
970,1109,724
975,1117,741
980,1135,749
985,1134,746
990,1140,757
995,1143,764
1000,1149,774
1004,1150,770
1010,1161,776
1014,1170,785
1020,1171,798
1025,1175,798
1030,1176,799
1035,1176,808
1040,1175,819
1045,1184,829
1050,1184,831
1055,1179,837
1060,1182,838
1065,1180,842
1070,1190,854
1075,1185,862
1080,1182,856
1085,1186,861
1090,1202,866
1095,1192,874
1100,1192,879
1105,1193,887
1110,1179,875
1115,1181,886
1120,1179,893
1125,1172,891
1130,1166,896
1135,1165,896
1140,1163,903
1145,1166,902
1150,1162,905
1155,1168,904
1160,1152,908
1165,1157,910
1170,1146,905
1175,1146,913
1180,1151,908
1185,1147,909
1190,1146,910
1195,1140,911
1200,1138,914
1205,1124,910
1210,1129,912
1215,1122,911
1220,1118,909
1225,1115,913
1230,1120,908
1235,1110,910
1240,1115,907
1245,1106,902
1250,1112,904
1255,1116,900
1260,1106,902
1265,1106,892
1270,1104,901
1275,1104,896
1280,1093,890
1285,1098,888
1290,1088,890
1295,1096,891
1300,1097,886
1305,1082,881
1310,1090,883
1315,1086,884
1320,1080,884
1325,1072,884
1330,1081,874
1335,1072,873
1340,1070,870
1345,1071,869
1350,1074,870
1355,1053,871
1360,1065,872
1365,1052,869
1370,1063,865
1375,1058,859
1380,1051,859
1385,1037,859
1390,1047,862
1395,1041,861
1400,1032,859
1405,1031,857
1410,1019,858
1415,1022,858
1420,1007,854
1425,1011,853
1430,1002,855
1435,1007,847
1440,995,846
1445,993,852
1450,976,846
1455,969,842
1460,967,842
1465,966,841
1470,959,839
1475,945,843
1480,945,835
1485,927,826
1490,931,832
1495,919,834
1500,916,832
1505,902,832
1510,898,822
1515,888,823
1520,883,823
1525,868,819
1530,865,821
1535,860,814
1540,844,808
1545,847,805
1550,839,803
1555,829,801
1560,825,794
1565,811,792
1570,813,791
1575,802,786
1580,800,781
1585,786,773
1590,786,778
1595,779,767
1600,771,766
1605,771,761
1610,764,752
1615,763,751
1620,755,746
1625,771,745
1630,761,741
1635,752,731
1640,741,730
1645,749,720
1650,751,721
1655,749,717
1660,743,712
1665,761,708
1670,744,700
1675,749,697
1680,754,696
1685,760,698
1690,757,688
1695,773,680
1700,768,681
1705,769,674
1710,779,669
1715,782,668
1720,782,667
1725,795,663
1730,800,660
1735,813,661
1740,816,649
1745,829,653
1750,830,652
1755,844,652
1760,854,649
1765,856,651
1770,870,652
1775,880,651
1780,884,649
1785,900,647
1790,904,652
1795,912,655
1800,921,659
1805,932,650
1810,950,659
1815,957,658
1820,964,656
1825,968,663
1830,993,669
1835,1003,664
1840,1010,677
1845,1024,677
1850,1029,677
1855,1042,693
1860,1049,694
1865,1056,694
1870,1077,701
1875,1076,702
1880,1079,711
1885,1095,718
1890,1105,723
1895,1110,727
1900,1111,734
1905,1127,736
1910,1132,743
1915,1139,746
1920,1147,752
1925,1145,763
1930,1147,769
1935,1162,773
1940,1160,782
1945,1170,795
1950,1173,794
1955,1167,799
1960,1177,811
1965,1185,813
1970,1171,816
1975,1179,824
1980,1185,824
1985,1191,837
1990,1192,839
1995,1186,847
2000,1184,854
2005,1183,856
2009,1186,868
2015,1192,871
2020,1183,869
2025,1187,878
2029,1175,878
2035,1181,886
2040,1178,888
2045,1171,886
2050,1173,894
2055,1179,891
2060,1177,896
2065,1174,898
2070,1165,901
2075,1168,905
2080,1155,900
2085,1154,904
2090,1153,906
2095,1156,913
2100,1152,913
2105,1142,909
2110,1145,908
2115,1147,911
2120,1139,911
2125,1135,911
2130,1136,913
2135,1129,910
2140,1132,908
2145,1126,909
2150,1120,910
2155,1120,909
2160,1120,906
2165,1119,914
2170,1113,903
2175,1107,906
2180,1114,906
2185,1098,900
2190,1112,892
2195,1101,902
2200,1094,894
2205,1095,895
2210,1098,893
2215,1098,887
2220,1093,888
2225,1094,890
2230,1092,886
2235,1075,885
2240,1081,883
2245,1077,880
2250,1084,877
2255,1076,881
2260,1076,875
2265,1077,874
2270,1073,875
2275,1076,870
2280,1060,868
2285,1073,869
2290,1060,870
2295,1061,866
2300,1065,862
2305,1064,862
2310,1054,862
2315,1047,857
2320,1048,860
2325,1034,860
2330,1044,860
2335,1028,856
2340,1020,853
2345,1019,852
2350,1006,855
2355,1014,849
2360,1011,850
2365,1003,847
2370,995,846
2375,994,848
2380,979,845
2385,975,845
2390,965,846
2395,956,848
2400,950,849
2405,951,842
2410,934,840
2415,927,836
2420,918,834
2425,922,828
2430,912,825
2435,899,822
2440,907,827
2445,886,827
2450,883,822
2455,864,817
2460,865,818
2465,859,812
2470,836,808
2475,832,807
2480,839,799
2485,825,798
2490,817,794
2495,811,795
2500,807,788
2505,805,785
2510,799,782
2515,782,775
2520,778,769
2525,788,766
2530,775,767
2535,766,761
2540,763,749
2545,754,750
2550,753,743
2555,765,735
2560,758,738
2565,753,732
2570,747,726
2575,743,720
2580,747,717
2585,746,717
2590,746,711
2595,758,702
2600,760,702
2605,757,695
2610,749,691
2615,751,690
2620,766,689
2625,767,682
2630,767,676
2635,768,677
2640,777,671
2645,793,668
2650,788,662
2655,797,661
2660,802,659
2665,812,658
2670,820,654
2675,825,652
2680,841,656
2685,852,652
2690,853,647
2695,863,651
2700,876,654
2705,888,651
2710,886,650
2715,905,653
2720,895,648
2725,922,649
2730,928,647
2735,942,657
2740,947,655
2745,961,662
2750,977,666
2755,983,666
2760,994,669
2765,1011,670
2770,1019,678
2775,1034,675
2780,1028,680
2785,1041,686
2790,1058,692
2795,1063,690
2800,1067,697
2805,1075,709
2810,1089,713
2815,1105,719
2820,1112,726
2825,1111,728
2830,1123,738
2835,1125,737
2840,1130,745
2845,1136,755
2850,1150,756
2855,1157,760
2860,1158,775
2865,1160,778
2870,1168,786
2875,1168,795
2880,1164,798
2885,1172,796
2890,1175,810
2895,1187,816
2900,1183,820
2905,1184,823
2910,1186,829
2915,1188,837
2920,1184,839
2925,1182,845
2930,1198,849
2935,1193,861
2940,1189,863
2945,1185,866
2950,1191,877
2955,1189,875
2960,1181,882
2965,1181,884
2970,1186,887
2975,1181,891
2980,1176,897
2985,1168,895
2990,1165,896
2995,1172,902
3000,1162,907
3005,1156,902
3010,1159,902
3015,1148,914
3020,1150,899
3025,1151,910
3030,1147,909
3035,1146,910
3040,1149,909
3045,1142,909
3050,1135,906
3055,1136,903
3060,1124,907
3065,1115,911
3070,1128,907
3075,1134,910
3080,1120,909
3085,1120,911
3090,1108,908
3095,1109,904
3100,1110,905
3105,1105,904
3110,1104,906
3115,1105,901
3120,1099,899
3125,1101,896
3130,1097,897
3135,1092,895
3140,1089,898
3145,1109,892
3150,1091,886
3155,1095,888
3160,1093,886
3165,1084,887
3170,1079,883
3175,1075,876
3180,1089,879
3185,1088,870
3190,1081,875
3195,1072,869
3200,1077,877
3205,1071,871
3210,1068,865
3215,1061,871
3220,1056,868
3225,1059,868
3230,1057,864
3235,1059,863
3240,1051,855
3245,1040,858
3250,1051,856
3255,1044,853
3260,1033,863
3265,1033,860
3270,1025,857
3275,1013,851
3280,1021,851
3285,1008,854
3290,999,852
3295,991,849
3300,988,848
3305,982,847
3310,972,845
3315,974,844
3320,972,843
3325,954,841
3330,951,840
3335,940,839
3340,934,836
3345,926,831
3350,921,833
3355,915,830
3360,909,826
3365,896,825
3370,885,825
3375,881,821
3380,877,821
3385,865,815
3390,865,813
3395,858,805
3400,844,806
3405,842,807
3410,824,801
3415,822,798
3420,819,799
3425,797,789
3430,799,787
3435,799,787
3440,789,776
3445,781,776
3450,780,767
3455,785,770
3460,772,758
3465,765,762
3470,766,751
3475,757,747
3480,758,743
3485,760,741
3490,748,733
3495,753,728
3500,756,726
3505,744,718
3510,744,717
3515,746,715
3520,757,708
3525,747,704
3530,756,695
3535,752,691
3540,750,686
3545,763,685
3550,763,688
3555,774,681
3560,769,678
3565,777,663
3570,788,663
3575,789,667
3580,798,658
3585,807,668
3590,812,658
3595,819,655
3600,823,656
3605,832,654
3610,839,646
3615,845,652
3620,865,649
3625,871,648
3630,876,653
3635,888,652
3640,904,644
3645,896,650
3650,917,652
3655,916,651
3660,932,654
3665,939,653
3670,955,657
3675,966,660
3680,983,661
3685,990,665
3690,1000,669
3695,1011,669
3700,1023,676
3705,1028,686
3710,1035,685
3715,1048,686
3720,1056,693
3725,1061,699
3730,1078,703
3735,1091,708
3740,1096,713
3745,1107,720
3750,1113,728
3755,1121,732
3760,1117,736
3765,1121,745
3770,1135,751
3775,1141,757
3780,1149,769
3785,1152,774
3790,1150,778
3795,1163,784
3800,1162,789
3805,1169,794
3810,1168,804
3815,1169,807
3820,1184,814
3825,1182,821
3830,1185,825
3835,1186,831
3840,1178,830
3845,1183,840
3850,1188,848
3855,1193,849
3860,1187,855
3865,1177,858
3870,1186,867
3875,1196,869
3880,1189,872
3885,1175,878
3890,1189,883
3895,1188,888
3900,1177,890
3905,1178,891
3910,1179,898
3915,1177,896
3920,1171,906
3925,1169,900
3930,1167,903
3935,1153,906
3940,1169,904
3945,1153,908
3950,1143,904
3955,1153,913
3960,1137,914
3965,1147,911
3970,1143,913
3975,1126,910
3980,1145,916
3985,1133,910
3990,1136,916
3995,1133,913
4000,1132,912
4005,1117,907
4010,1124,908
4014,1121,910
4019,1113,907
4025,1119,908
4030,1110,904
4035,1110,901
4040,1111,895
4045,1108,899
4050,1094,896
4054,1102,901
4059,1094,890
4065,1094,892
4070,1097,890
4075,1097,892
4080,1089,887
4085,1086,886
4090,1090,882
4094,1091,886
4100,1094,880
4105,1073,871
4110,1092,878
4115,1078,872
4120,1079,877
4125,1075,871
4130,1069,870
4135,1069,871
4140,1066,869
4145,1058,868
4150,1058,866
4155,1060,867
4160,1059,862
4165,1046,867
4170,1045,862
4175,1041,856
4180,1039,856
4185,1037,858
4190,1041,858
4195,1024,854
4200,1020,855
4205,1015,849
4210,1010,853
4215,1014,852
4220,999,850
4225,1000,848
4230,987,852
4235,989,850
4240,971,842
4245,971,845
4250,952,836
4255,953,837
4260,945,842
4265,940,836
4270,935,839
4275,921,835
4280,914,830
4285,913,833
4290,906,824
4295,890,821
4300,873,824
4305,876,820
4310,870,816
4315,868,814
4320,854,811
4325,851,808
4330,843,807
4335,822,803
4340,830,799
4345,814,800
4350,809,797
4355,798,792
4360,804,784
4365,797,788
4370,791,779
4375,784,770
4380,772,768
4385,780,762
4390,768,755
4395,768,751
4400,766,752
4405,758,743
4410,754,744
4415,759,734
4420,743,734
4425,751,731
4430,754,724
4435,756,722
4440,754,717
4445,746,713
4450,745,704
4455,746,698
4460,746,699
4465,751,693
4470,760,687
4475,756,689
4480,762,678
4485,769,676
4490,773,673
4495,772,670
4500,788,667
4505,795,664
4510,796,661
4515,805,664
4520,815,651
4525,825,656
4530,829,646
4535,828,654
4540,851,650
4545,849,647
4550,856,650
4555,867,649
4560,880,647
4565,888,650
4570,894,652
4575,915,650
4580,913,649
4585,927,659
4590,945,656
4595,953,661
4600,966,659
4605,973,660
4610,983,663
4615,993,668
4620,1004,673
4625,1018,673
4630,1033,677
4635,1024,678
4640,1042,688
4645,1055,693
4650,1069,703
4655,1060,699
4660,1074,699
4665,1089,711
4670,1084,719
4675,1111,724
4680,1111,729
4685,1119,736
4690,1118,744
4695,1127,742
4700,1133,752
4705,1143,755
4710,1153,765
4715,1156,772
4720,1160,776
4725,1169,788
4730,1163,790
4735,1164,798
4740,1169,804
4745,1185,811
4750,1186,815
4755,1189,815
4760,1185,824
4765,1187,830
4770,1184,830
4775,1181,844
4780,1188,847
4785,1191,847
4790,1183,850
4795,1183,863
4800,1186,869
4805,1180,866
4810,1194,880
4815,1186,881
4820,1190,885
4825,1183,888
4830,1173,887
4835,1176,898
4840,1173,898
4845,1165,894
4850,1170,899
4855,1159,903
4860,1162,898
4865,1164,912
4870,1153,908
4875,1154,907
4880,1150,907
4885,1146,908
4890,1142,909
4895,1142,914
4900,1141,909
4905,1144,912
4910,1137,909
4915,1124,910
4920,1122,914
4925,1126,905
4930,1116,920
4935,1120,908
4940,1121,913
4945,1121,904
4950,1123,903
4955,1110,908
4960,1109,902
4965,1109,902
4970,1103,901
4975,1107,897
4980,1109,900
4985,1099,894
4990,1099,896
4995,1093,892
5000,1089,891
5005,1090,880
5010,1091,886
5015,1088,888
5020,1084,883
5025,1078,881
5030,1085,876
5035,1086,877
5040,1068,874
5045,1076,873
5050,1078,873
5055,1076,868
5060,1068,871
5065,1074,867
5070,1062,875
5075,1063,867
5080,1069,867
5085,1058,865
5090,1050,864
5095,1039,861
5100,1046,862
5105,1050,859
5110,1036,857
5115,1024,861
5120,1036,856
5125,1025,858
5130,1021,851
5135,1023,849
5140,1011,853
5145,1002,849
5150,995,852
5155,995,852
5160,984,848
5165,981,847
5170,972,848
5175,968,846
5180,960,840
5185,940,841
5190,946,842
5195,934,836
5200,924,830
5205,919,831
5210,914,831
5215,915,833
5220,900,825
5225,888,825
5230,884,822
5235,882,819
5240,870,812
5245,860,816
5250,856,807
5255,845,808
5260,831,811
5265,823,796
5270,828,797
5275,817,788
5280,813,800
5285,801,788
5290,799,783
5295,784,780
5300,791,776
5305,778,773
5310,771,766
5315,767,767
5320,765,760
5325,757,753
5330,765,751
5335,761,748
5340,748,736
5345,757,736
5350,755,730
5355,742,726
5360,756,722
5365,751,719
5370,742,712
5375,758,709
5380,752,702
5385,749,694
5390,754,693
5395,752,691
5400,767,686
5405,758,686
5410,763,676
5415,766,674
5420,785,676
5425,778,670
5430,784,666
5435,790,664
5440,801,661
5445,810,655
5450,814,663
5455,831,654
5460,836,651
5465,836,652
5470,846,654
5475,861,651
5480,860,647
5485,877,650
5490,876,647
5495,904,648
5500,907,645
5505,913,650
5510,926,652
5515,934,657
5520,960,657
5525,957,659
5530,964,654
5535,974,655
5540,990,667
5545,992,667
5550,1008,675
5555,1015,682
5560,1026,684
5565,1046,683
5570,1051,694
5575,1057,693
5580,1066,696
5585,1074,703
5590,1084,706
5595,1083,707
5600,1106,717
5605,1106,723
5610,1114,732
5615,1118,741
5620,1116,743
5625,1140,752
5630,1135,758
5635,1147,761
5640,1148,767
5645,1160,770
5650,1165,776
5655,1163,782
5660,1169,796
5665,1172,800
5670,1187,804
5675,1179,814
5680,1183,816
5685,1181,822
5690,1183,833
5695,1184,834
5700,1197,844
5705,1183,847
5710,1191,850
5715,1176,848
5720,1189,859
5725,1199,865
5730,1180,873
5735,1186,870
5740,1185,879
5745,1180,883
5750,1181,883
5755,1185,888
5760,1179,889
5765,1169,890
5770,1172,898
5775,1181,899
5780,1162,900
5785,1169,899
5790,1158,906
5795,1166,909
5800,1159,910
5805,1152,912
5810,1156,908
5815,1140,906
5820,1135,907
5825,1139,915
5830,1139,912
5835,1131,909
5840,1134,911
5845,1130,912
5850,1137,910
5855,1127,916
5860,1121,904
5865,1124,907
5870,1120,907
5875,1109,905
5880,1115,906
5885,1100,902
5890,1106,904
5895,1102,902
5900,1105,901
5905,1103,899
5910,1107,901
5915,1105,890
5920,1095,892
5925,1092,890
5930,1096,886
5935,1089,884
5940,1095,885
5945,1092,880
5950,1091,881
5955,1084,881
5960,1074,884
5965,1079,877
5970,1077,880
5975,1077,877
5980,1070,870
5985,1074,869
5990,1080,873
5995,1062,871
6000,1063,866
6005,1059,874
6010,1054,865
6015,1047,861
6020,1063,866
6025,1039,859
6030,1033,862
6035,1039,855
6040,1030,857
6045,1030,857
6050,1033,859
6055,1019,851
6060,1010,855
6065,1009,849
6070,1004,853
6075,995,847
6080,998,849
6085,988,847
6090,979,847
6095,974,851
6100,967,843
6105,961,845
6110,952,840
6115,948,835
6120,942,835
6125,938,833
6130,921,832
6135,914,832
6140,907,830
6145,905,831
6150,898,817
6155,892,825
6160,883,822
6165,880,815
6170,873,813
6175,859,809
6180,850,814
6185,851,809
6190,826,801
6195,828,797
6200,818,795
6205,811,795
6210,803,790
6215,795,780
6220,797,780
6225,787,776
6230,781,771
6235,780,771
6240,781,765
6245,783,757
6250,769,763
6255,759,752
6260,759,740
6265,754,744
6270,755,739
6275,746,733
6280,747,732
6285,743,724
6290,752,714
6295,745,721
6300,753,711
6305,742,704
6310,751,699
6315,745,697
6320,752,697
6325,748,691
6330,759,683
6335,760,675
6340,768,678
6345,773,673
6350,785,671
6355,796,671
6360,784,663
6365,787,661
6370,804,658
6375,813,656
6380,815,655
6385,811,649
6390,832,654
6395,844,652
6400,851,651
6405,861,646
6410,870,647
6415,878,647
6420,896,647
6425,897,652
6430,905,648
6435,923,654
6440,929,654
6445,945,653
6450,947,654
6455,954,657
6460,970,656
6465,978,661
6470,994,661
6475,997,676
6480,1015,673
6485,1018,676
6490,1031,685
6495,1044,684
6500,1055,691
6505,1060,688
6510,1064,697
6515,1082,705
6520,1087,706
6525,1094,714
6530,1101,721
6535,1105,734
6540,1114,729
6545,1123,736
6550,1137,746
6555,1133,753
6560,1142,762
6565,1149,763
6570,1156,766
6575,1156,773
6580,1169,780
6585,1174,783
6590,1173,798
6595,1175,808
6600,1173,800
6605,1184,811
6610,1189,820
6615,1181,824
6620,1183,832
6625,1186,832
6630,1188,846
6635,1184,846
6640,1190,850
6645,1185,861
6650,1193,861
6655,1184,864
6660,1183,873
6665,1183,867
6670,1188,878
6675,1188,879
6680,1182,885
6685,1181,893
6690,1175,894
6695,1176,901
6700,1165,897
6705,1163,898
6710,1168,899
6715,1153,906
6720,1160,907
6725,1162,910
6730,1163,906
6735,1144,914
6740,1149,915
6745,1143,905
6750,1148,917
6755,1142,911
6760,1135,913
6765,1135,908
6770,1136,909
6775,1127,911
6780,1127,912
6785,1121,915
6790,1119,910
6795,1121,909
6800,1109,903
6805,1128,906
6810,1118,905
6815,1106,908
6820,1113,905
6825,1109,894
6830,1096,897
6835,1099,893
6840,1102,897
6845,1102,889
6850,1094,894
6855,1086,893
6860,1088,887
6865,1089,884
6870,1098,885
6875,1087,886
6880,1082,879
6885,1087,887
6890,1090,882
6895,1077,881
6900,1083,877
6905,1082,876
6910,1069,874
6915,1070,868
6920,1077,867
6925,1067,867
6930,1063,869
6935,1060,870
6940,1055,862
6945,1055,870
6950,1052,865
6955,1037,862
6960,1050,857
6965,1035,861
6970,1030,851
6975,1031,854
6980,1030,856
6985,1013,855
6990,1017,852
6995,1004,854
7000,1007,845
7005,1011,850
7010,996,843
7015,988,847
7020,982,846
7025,972,847
7030,965,847
7035,961,848
7040,957,844
7045,944,839
7050,931,836
7055,928,828
7060,920,830
7065,918,835
7070,910,828
7075,900,823
7080,889,826
7085,884,828
7090,877,822
7095,868,819
7100,867,816
7105,853,816
7110,849,812
7115,847,809
7120,837,802
7125,824,801
7130,819,798
7135,808,790
7140,797,787
7145,796,788
7150,793,783
7155,790,774
7160,786,780
7165,779,767
7170,771,760
7175,781,759
7180,763,754
7185,759,752
7190,754,745
7195,754,739
7200,753,736
7205,745,733
7210,756,726
7215,758,726
7220,744,715
7225,741,713
7230,741,711
7235,751,707
7240,752,697
7245,750,689
7250,753,693
7255,758,685
7260,761,682
7265,770,679
7270,771,672
7275,769,672
7280,783,672
7285,786,666
7290,794,665
7295,804,662
7300,810,657
7305,820,660
7310,825,657
7315,822,656
7320,839,652
7325,845,650
7330,864,651
7335,870,647
7340,867,646
7345,888,651
7350,894,649
7355,903,643
7360,913,649
7365,924,655
7370,927,652
7375,947,655
7380,943,653
7385,965,658
7390,973,662
7395,980,658
7400,981,668
7405,1002,675
7410,1013,677
7415,1023,679
7420,1038,682
7425,1045,688
7430,1055,695
7435,1071,694
7440,1067,704
7445,1082,711
7450,1087,715
7455,1098,714
7460,1105,728
7465,1121,732
7470,1121,740
7475,1116,741
7480,1132,751
7485,1142,756
7490,1145,757
7495,1143,761
7500,1150,773
7505,1162,772
7510,1166,783
7515,1167,797
7520,1175,797
7525,1183,807
7530,1175,811
7535,1179,821
7540,1172,823
7545,1187,832
7550,1184,835
7555,1184,839
7560,1180,843
7565,1187,856
7570,1192,854
7575,1188,857
7580,1188,868
7585,1183,871
7590,1187,873
7595,1180,873
7600,1176,879
7605,1180,882
7610,1182,887
7615,1190,891
7620,1176,894
7625,1180,895
7630,1181,898
7635,1174,896
7640,1161,904
7645,1161,903
7650,1161,906
7655,1153,907
7660,1159,911
7665,1147,909
7670,1140,912
7675,1142,911
7680,1140,910
7685,1140,911
7690,1136,912
7695,1145,909
7700,1128,918
7705,1133,910
7710,1131,914
7715,1121,911
7720,1116,905
7725,1121,909
7730,1109,906
7735,1121,904
7740,1118,903
7745,1107,900
7750,1115,898
7755,1107,899
7760,1106,898
7765,1107,901
7770,1099,894
7775,1111,888
7780,1095,893
7785,1095,889
7790,1094,887
7795,1097,886
7800,1098,888
7805,1094,890
7810,1091,883
7815,1080,881
7820,1083,876
7825,1082,874
7830,1069,878
7835,1077,875
7840,1082,875
7845,1073,872
7850,1070,873
7855,1064,870
7860,1066,867
7865,1054,869
7870,1051,858
7875,1044,859
7880,1045,862
7885,1045,860
7890,1039,859
7895,1040,855
7900,1020,859
7905,1027,856
7910,1023,856
7915,1022,859
7920,1014,857
7925,1010,852
7930,1001,849
7935,996,855
7940,988,848
7945,981,846
7950,989,846
7955,976,847
7960,962,842
7965,961,846
7970,950,842
7975,940,845
7980,942,835
7985,914,832
7990,921,834
7995,911,827
8000,905,830
8005,897,828
8010,886,824
8015,881,822
8020,879,821
8025,870,818
8029,863,811
8035,852,808
8039,831,807
8045,836,804
8050,828,803
8055,822,796
8060,813,796
8064,810,787
8070,796,791
8074,792,780
8080,783,774
8085,783,774
8090,784,773
8095,780,767
8100,768,766
8105,772,761
8109,769,754
8115,758,745
8119,760,749
8125,756,740
8130,744,735
8135,751,731
8140,742,723
8145,745,717
8150,748,719
8154,751,712
8160,736,708
8164,753,706
8170,752,702
8175,749,691
8180,759,688
8185,759,687
8189,762,683
8195,773,674
8200,772,682
8205,769,675
8210,776,666
8215,787,665
8220,795,663
8225,806,658
8230,810,659
8235,807,659
8240,825,655
8245,839,656
8250,835,647
8255,854,647
8260,857,649
8265,870,652
8270,878,645
8275,892,646
8280,882,657
8285,908,647
8290,913,650
8295,934,654
8300,938,656
8305,954,662
8310,962,657
8315,968,659
8320,977,667
8325,994,666
8330,1005,674
8335,1010,674
8340,1018,674
8345,1039,682
8350,1044,683
8355,1038,692
8360,1057,696
8365,1072,699
8370,1083,702
8375,1086,714
8380,1085,716
8385,1097,726
8390,1113,723
8395,1118,731
8400,1128,737
8405,1132,747
8410,1139,750
8415,1145,756
8420,1153,761
8425,1150,766
8430,1165,773
8435,1154,782
8440,1164,783
8445,1169,793
8450,1175,801
8455,1175,808
8460,1176,810
8465,1183,821
8470,1182,822
8475,1174,827
8480,1178,833
8485,1185,838
8490,1186,849
8495,1189,852
8500,1196,853
8505,1185,860
8510,1179,866
8515,1192,867
8520,1179,875
8525,1181,878
8530,1184,882
8535,1176,885
8540,1173,891
8545,1171,896
8550,1172,898
8555,1175,896
8560,1160,904
8565,1169,899
8570,1164,907
8575,1170,903
8580,1155,909
8585,1152,909
8590,1150,905
8595,1154,910
8600,1142,909
8605,1142,907
8610,1139,914
8615,1142,912
8620,1131,912
8625,1133,912
8630,1129,908
8635,1133,915
8640,1127,913
8645,1129,908
8650,1117,905
8655,1111,909
8660,1113,908
8665,1120,904
8670,1107,906
8675,1113,906
8680,1104,904
8685,1105,899
8690,1103,900
8695,1101,894
8700,1104,889
8705,1098,890
8710,1100,886
8715,1089,887
8720,1093,888
8725,1093,888
8730,1079,881
8735,1089,885
8740,1088,884
8745,1074,881
8750,1084,875
8755,1070,880
8760,1080,875
8765,1068,870
8770,1066,870
8775,1067,867
8780,1072,865
8785,1062,862
8790,1051,863
8795,1054,860
8800,1051,866
8805,1048,858
8810,1050,860
8815,1052,860
8820,1034,862
8825,1026,856
8830,1029,857
8835,1027,857
8840,1026,857
8845,1021,848
8850,1013,855
8855,1001,846
8860,997,852
8865,994,849
8870,995,842
8875,986,852
8880,981,846
8885,964,841
8890,967,843
8895,964,840
8900,948,835
8905,942,838
8910,938,838
8915,926,830
8920,915,834
8925,916,829
8930,904,822
8935,894,829
8940,887,821
8945,880,820
8950,878,814
8955,866,819
8960,856,813
8965,842,813
8970,839,806
8975,829,799
8980,828,799
8985,816,800
8990,810,792
8995,802,789
9000,804,784
9005,787,785
9010,791,778
9015,788,769
9020,779,772
9025,775,769
9030,764,762
9035,767,754
9040,755,752
9045,760,751
9050,763,742
9055,751,739
9060,752,731
9065,749,726
9070,745,722
9075,750,717
9080,756,714
9085,748,710
9090,748,706
9095,749,697
9100,756,696
9105,756,692
9110,756,697
9115,761,689
9120,765,682
9125,782,679
9130,779,674
9135,773,673
9140,782,662
9145,794,664
9150,798,667
9155,803,661
9160,816,660
9165,814,651
9170,829,656
9175,838,647
9180,847,649
9185,845,646
9190,867,655
9195,883,645
9200,881,646
9205,895,655
9210,909,654
9215,911,648
9220,926,649
9225,937,653
9230,939,660
9235,948,657
9240,957,663
9245,978,665
9250,992,668
9255,1003,664
9260,996,672
9265,1013,673
9270,1021,681
9275,1036,682
9280,1042,685
9285,1054,690
9290,1063,695
9295,1073,699
9300,1093,705
9305,1090,712
9310,1100,718
9315,1102,725
9320,1109,723
9325,1129,738
9330,1120,741
9335,1137,746
9340,1148,755
9345,1147,758
9350,1145,760
9355,1162,775
9360,1159,783
9365,1160,780
9370,1174,798
9375,1168,795
9380,1174,795
9385,1181,804
9390,1169,813
9395,1181,819
9400,1184,818
9405,1189,835
9410,1189,833
9415,1190,845
9420,1195,847
9425,1194,850
9430,1187,856
9435,1200,861
9440,1182,861
9445,1184,875
9450,1188,871
9455,1191,881
9460,1184,880
9465,1178,885
9470,1182,886
9475,1178,893
9480,1175,898
9485,1170,902
9490,1174,898
9495,1158,904
9500,1167,906
9505,1162,905
9510,1155,911
9515,1157,914
9520,1149,913
9525,1148,915
9530,1151,914
9535,1133,911
9540,1129,914
9545,1137,908
9550,1132,912
9555,1129,915
9560,1114,905
9565,1136,910
9570,1117,913
9575,1121,914
9580,1127,906
9585,1114,904
9590,1114,907
9595,1105,907
9600,1103,904
9605,1109,900
9610,1091,901
9615,1107,902
9620,1098,892
9625,1095,894
9630,1101,901
9635,1094,890
9640,1097,890
9645,1089,886
9650,1092,886
9655,1083,883
9660,1083,879
9665,1073,887
9670,1081,876
9675,1088,878
9680,1086,879
9685,1073,878
9690,1081,877
9695,1074,871
9700,1074,868
9705,1065,864
9710,1069,868
9715,1064,867
9720,1058,871
9725,1055,869
9730,1052,866
9735,1047,867
9740,1036,867
9745,1053,864
9750,1041,857
9755,1032,858
9760,1023,850
9765,1025,856
9770,1022,853
9775,1013,857
9780,1008,853
9785,997,847
9790,992,847
9795,997,850
9800,986,844
9805,977,842
9810,970,847
9815,961,848
9820,951,839
9825,951,840
9830,943,842
9835,928,841
9840,934,841
9845,918,832
9850,910,837
9855,900,824
9860,899,827
9865,907,829
9870,890,818
9875,879,820
9880,869,814
9885,862,821
9890,851,814
9895,850,807
9900,845,805
9905,833,803
9910,821,802
9915,811,790
9920,806,786
9925,799,792
9930,797,780
9935,787,778
9940,789,776
9945,779,765
9950,777,767
9955,762,765
9960,770,759
9965,757,753
9970,759,747
9975,761,743
9980,760,739
9985,758,735
9990,754,730
9995,740,725
10000,754,725
10005,750,719
10010,754,706
10015,751,712
10020,742,704
10025,746,697
10030,756,693
10035,756,689
10040,758,687
10045,770,685
10050,768,678
10055,761,672
10060,771,669
10065,789,675
10070,791,669
10075,792,662
10080,806,669
10085,803,656
10090,811,658
10095,814,654
10100,831,650
10105,849,651
10110,844,646
10115,860,649
10120,858,650
10125,872,650
10130,888,652
10135,892,650
10140,907,646
10145,915,655
10150,923,651
10155,935,653
10160,947,660
10165,958,658
10170,977,663
10175,984,667
10180,986,668
10185,991,672
10190,1017,670
10195,1013,674
10200,1025,687
10205,1038,686
10210,1041,684
10215,1059,700
10220,1072,698
10225,1074,701
10230,1086,708
10235,1086,717
10240,1103,721
10245,1108,729
10250,1116,732
10255,1132,738
10260,1132,746
10265,1141,745
10270,1136,755
10275,1147,760
10280,1150,772
10285,1160,772
10290,1165,778
10295,1165,789
10300,1171,786
10305,1177,796
10310,1179,802
10315,1185,811
10320,1186,821
10325,1187,825
10330,1178,829
10335,1182,834
10340,1196,836
10345,1194,842
10350,1186,853
10355,1192,857
10360,1194,863
10365,1185,868
10370,1192,869
10375,1174,875
10380,1188,876
10385,1185,883
10390,1186,887
10395,1177,883
10400,1174,893
10405,1174,892
10410,1175,898
10415,1171,903
10420,1163,903
10425,1166,897
10430,1162,905
10435,1157,907
10440,1162,912
10445,1156,912
10450,1155,907
10455,1148,908
10460,1143,909
10465,1143,909
10470,1135,916
10475,1130,913
10480,1130,911
10485,1135,910
10490,1127,913
10495,1125,904
10500,1120,908
10505,1113,912
10510,1119,910
10515,1119,905
10520,1122,905
10525,1112,904
10530,1103,899
10535,1105,905
10540,1105,900
10545,1105,892
10550,1105,900
10555,1102,890
10560,1095,890
10565,1093,891
10570,1093,890
10575,1084,888
10580,1097,886
10585,1098,885
10590,1078,887
10595,1084,885
10600,1081,879
10605,1086,879
10610,1079,879
10615,1074,876
10620,1073,874
10625,1064,874
10630,1067,864
10635,1058,868
10640,1061,865
10645,1062,870
10650,1063,862
10655,1060,864
10660,1045,865
10665,1049,862
10670,1049,862
10675,1032,859
10680,1047,860
10685,1030,856
10690,1025,852
10695,1028,854
10700,1016,852
10705,1014,857
10710,1006,855
10715,1004,849
10720,988,846
10725,996,852
10730,984,847
10735,979,850
10740,968,849
10745,974,845
10750,963,839
10755,950,834
10760,939,833
10765,944,836
10770,919,839
10775,924,834
10780,915,825
10785,908,830
10790,897,826
10795,890,823
10800,882,823
10805,875,815
10810,856,814
10815,856,816
10820,849,809
10825,851,798
10830,828,806
10835,830,800
10840,819,799
10845,815,786
10850,805,789
10855,814,784
10860,795,787
10865,780,784
10870,787,771
10875,783,766
10880,777,770
10885,766,756
10890,754,758
10895,766,749
10900,766,743
10905,754,740
10910,748,746
10915,744,732
10920,760,726
10925,749,731
10930,743,721
10935,746,721
10940,752,706
10945,741,706
10950,749,705
10955,752,699
10960,754,692
10965,767,692
10970,764,685
10975,769,684
10980,770,675
10985,780,675
10990,774,672
10995,780,669
11000,792,664
11005,794,662
11010,797,662
11015,805,654
11020,820,650
11025,816,653
11030,834,653
11035,839,653
11040,846,651
11045,857,647
11050,869,650
11055,875,648
11060,886,649
11065,897,650
11070,906,646
11075,914,650
11080,937,648
11085,943,656
11090,952,654
11095,963,661
11100,970,666
11105,987,665
11110,1002,670
11115,997,673
11120,1015,669
11125,1025,674
11130,1029,681
11135,1044,684
11140,1053,699
11145,1062,691
11150,1069,701
11155,1079,709
11160,1080,710
11165,1093,719
11170,1101,716
11175,1117,728
11180,1120,729
11185,1123,744
11190,1137,748
11195,1139,747
11200,1148,755
11205,1148,767
11210,1161,772
11215,1155,779
11220,1158,782
11225,1166,792
11230,1172,792
11235,1173,801
11240,1176,805
11245,1178,813
11250,1194,821
11255,1181,821
11260,1179,830
11265,1188,834
11270,1189,840
11275,1182,842
11280,1185,852
11285,1192,859
11290,1196,861
11295,1191,870
11300,1182,872
11305,1191,874
11310,1198,883
11315,1178,877
11320,1183,887
11325,1178,889
11330,1175,889
11335,1177,895
11340,1169,898
11345,1162,901
11350,1172,905
11355,1163,903
11360,1156,908
11365,1156,907
11370,1164,909
11375,1152,912
11380,1148,908
11385,1140,912
11390,1149,905
11395,1131,906
11400,1139,914
11405,1142,904
11410,1128,913
11415,1125,907
11420,1130,905
11425,1123,909
11430,1129,906
11435,1116,914
11440,1124,909
11445,1114,906
11450,1108,903
11455,1110,906
11460,1110,905
11465,1105,897
11470,1106,900
11475,1104,899
11480,1098,897
11485,1095,899
11490,1100,894
11495,1098,894
11500,1093,890
11505,1093,891
11510,1090,886
11515,1091,882
11520,1084,881
11525,1087,875
11530,1083,877
11535,1078,877
11540,1074,877
11545,1075,875
11550,1074,874
11555,1059,870
11560,1067,873
11565,1071,867
11570,1062,868
11575,1060,864
11580,1054,862
11585,1054,867
11590,1053,865
11595,1044,861
11600,1044,852
11605,1034,858
11610,1030,858
11615,1024,858
11620,1026,858
11625,1018,850
11630,1009,854
11635,1008,854
11640,999,854
11645,998,847
11650,1000,848
11655,985,850
11660,981,847
11665,972,840
11670,974,847
11675,961,842
11680,952,839
11685,938,839
11690,941,835
11695,930,838
11700,927,833
11705,907,833
11710,916,833
11715,899,820
11720,890,827
11725,884,816
11730,881,820
11735,869,819
11740,860,813
11745,859,813
11750,851,808
11755,841,806
11760,835,801
11765,828,799
11770,820,795
11775,809,794
11780,800,784
11785,796,785
11790,792,784
11795,789,775
11800,788,774
11805,775,766
11810,766,768
11815,774,766
11820,761,758
11825,760,752
11830,753,746
11835,748,743
11840,757,735
11845,739,733
11850,747,726
11855,752,721
11860,752,717
11865,763,715
11870,753,708
11875,752,702
11880,746,697
11885,746,697
11890,759,695
11895,757,682
11900,763,686
11905,761,674
11910,765,674
11915,781,668
11920,782,665
11925,790,665
11930,792,668
11935,788,658
11940,811,655
11945,808,656
11950,814,657
11955,837,657
11960,840,650
11965,849,652
11970,856,648
11975,865,653
11980,868,653
11985,884,653
11990,897,649
11995,906,646
12000,913,649
12005,926,659
12010,926,655
12015,938,655
12020,958,656
12025,963,659
12030,967,661
12035,987,668
12040,982,668
12045,1014,674
12050,1014,679
12055,1033,678
12060,1040,687
12065,1045,685
12070,1056,696
12075,1071,702
12080,1079,701
12085,1082,706
12090,1097,716
12095,1107,718
12100,1107,725
12105,1112,730
12110,1119,735
12115,1127,744
12120,1134,748
12125,1137,751
12130,1148,763
12135,1157,765
12140,1162,773
12145,1164,778
12150,1160,791
12155,1168,787
12160,1177,800
12165,1174,802
12170,1180,805
12175,1171,816
12180,1179,823
12185,1190,830
12190,1186,838
12195,1191,838
12200,1190,850
12205,1194,851
12210,1192,855
12215,1179,864
12220,1192,863
12225,1186,874
12230,1195,870
12235,1179,875
12240,1179,879
12245,1180,886
12250,1170,884
12255,1180,889
12260,1175,895
12265,1170,894
12270,1166,899
12275,1160,900
12280,1167,908
12285,1162,903
12290,1158,906
12295,1158,912
12300,1150,906
12305,1150,911
12310,1155,907
12315,1135,917
12320,1143,914
12325,1134,909
12330,1144,918
12335,1133,903
12340,1124,904
12345,1133,912
12350,1126,911
12355,1114,913
12360,1121,908
12365,1116,906
12370,1111,907
12375,1107,905
12380,1116,901
12385,1113,902
12390,1104,899
12395,1113,901
12400,1101,898
12405,1106,893
12410,1090,897
12415,1099,893
12420,1092,886
12425,1090,891
12430,1095,887
12435,1094,884
12440,1083,887
12445,1078,880
12450,1084,883
12455,1085,884
12460,1085,879
12465,1074,875
12470,1076,874
12475,1071,874
12480,1068,874
12485,1071,871
12490,1067,866
12495,1061,867
12500,1058,864
12505,1063,869
12510,1054,864
12515,1055,860
12520,1055,863
12525,1038,862
12530,1040,859
12535,1043,857
12540,1037,858
12545,1035,859
12550,1014,856
12555,1029,851
12560,1007,848
12565,1010,855
12570,992,852
12575,996,845
12580,992,846
12585,981,843
12590,977,843
12595,974,840
12600,959,847
12605,950,841
12610,951,839
12615,939,838
12620,930,834
12625,916,839
12630,918,830
12635,922,828
12640,911,825
12645,904,829
12650,886,833
12655,885,819
12660,874,827
12665,854,819
12670,864,813
12675,850,809
12680,847,806
12685,843,805
12690,831,804
12695,819,797
12700,819,791
12705,807,790
12710,801,784
12715,796,782
12720,790,780
12725,784,773
12730,773,769
12735,778,767
12740,777,763
12745,773,759
12750,759,753
12755,765,748
12760,769,737
12765,756,740
12770,750,730
12775,760,727
12780,752,719
12785,748,722
12790,750,715
12795,757,719
12800,754,710
12805,746,707
12810,750,693
12815,753,695
12820,752,688
12825,766,684
12830,759,680
12835,767,681
12840,778,675
12845,776,672
12850,784,672
12855,790,665
12860,793,660
12865,792,669
12870,807,659
12875,818,661
12880,829,655
12885,838,651
12890,842,651
12895,845,651
12900,860,646
12905,868,649
12910,869,650
12915,894,648
12920,896,647
12925,905,652
12930,916,654
12935,930,646
12940,942,654
12945,947,655
12950,962,661
12955,972,652
12960,977,664
12965,988,662
12970,993,670
12975,1018,677
12980,1022,674
12985,1029,684
12990,1033,688
12995,1052,691
13000,1061,702
13005,1067,702
13010,1079,701
13015,1079,710
13020,1093,713
13025,1107,719
13030,1116,724
13035,1116,736
13040,1115,735
13045,1121,742
13050,1137,747
13055,1140,754
13060,1152,765
13065,1158,765
13070,1156,770
13075,1158,779
13080,1166,788
13085,1180,794
13090,1164,803
13095,1174,803
13100,1180,813
13105,1176,819
13110,1176,825
13115,1189,824
13120,1186,832
13125,1189,843
13130,1192,842
13135,1182,850
13140,1186,858
13145,1185,862
13150,1188,871
13155,1191,871
13160,1187,879
13165,1184,874
13170,1174,878
13175,1183,886
13180,1178,892
13185,1185,896
13190,1178,887
13195,1181,899
13200,1160,897
13205,1162,903
13210,1168,906
13215,1154,909
13220,1161,908
13225,1156,913
13230,1153,909
13235,1162,907
13240,1150,912
13245,1136,913
13250,1142,918
13255,1142,913
13260,1137,908
13265,1136,915
13270,1128,906
13275,1123,909
13280,1129,908
13285,1124,911
13290,1121,907
13295,1113,910
13300,1106,906
13305,1115,905
13310,1113,903
13315,1111,901
13320,1104,900
13325,1104,900
13330,1110,900
13335,1098,893
13340,1082,896
13345,1094,889
13350,1097,896
13355,1089,891
13360,1089,887
13365,1096,886
13370,1084,884
13375,1091,879
13380,1088,878
13385,1083,881
13390,1072,875
13395,1074,877
13400,1081,871
13405,1070,874
13410,1068,872
13415,1076,874
13420,1071,860
13425,1055,872
13430,1056,865
13435,1055,869
13440,1055,858
13445,1050,859
13450,1044,865
13455,1043,857
13460,1037,855
13465,1033,862
13470,1031,860
13475,1034,855
13480,1021,854
13485,1015,856
13490,1013,853
13495,999,850
13500,1000,846
13505,993,847
13510,989,847
13515,987,846
13520,977,844
13525,976,842
13530,960,843
13535,955,836
13540,942,834
13545,936,841
13550,927,838
13555,914,839
13560,923,831
13565,912,834
13570,895,824
13575,887,823
13580,883,827
13585,874,821
13590,867,820
13595,861,817
13600,850,815
13605,848,807
13610,838,804
13615,842,801
13620,831,797
13625,820,794
13630,814,797
13635,815,788
13640,796,784
13645,798,779
13650,791,779
13655,779,769
13660,777,765
13665,780,760
13670,765,762
13675,767,753
13680,763,751
13685,762,745
13690,752,744
13695,752,735
13700,752,733
13705,745,729
13710,747,726
13715,753,720
13720,755,714
13725,745,707
13730,741,705
13735,749,708
13740,753,694
13745,756,687
13750,764,686
13755,757,679
13760,767,684
13765,763,671
13770,773,673
13775,781,671
13780,777,665
13785,794,667
13790,793,657
13795,795,657
13800,813,651
13805,820,651
13810,829,654
13815,841,651
13820,842,653
13825,853,651
13830,862,653
13835,861,652
13840,881,646
13845,893,651
13850,902,650
13855,903,654
13860,919,653
13865,930,651
13870,943,657
13875,952,655
13880,958,660
13885,989,658
13890,979,665
13895,997,665
13900,1003,671
13905,1008,672
13910,1018,678
13915,1028,682
13920,1047,688
13925,1046,691
13930,1071,699
13935,1075,706
13940,1073,699
13945,1092,714
13950,1096,715
13955,1102,719
13960,1115,733
13965,1121,734
13970,1113,738
13975,1135,744
13980,1134,754
13985,1141,758
13990,1144,767
13995,1160,767
14000,1166,779
14005,1158,779
14010,1163,791
14015,1172,796
14020,1182,800
14025,1187,810
14030,1178,816
14035,1186,825
14040,1182,824
14045,1186,825
14050,1187,840
14055,1187,843
14060,1196,845
14065,1180,859
14070,1181,862
14075,1189,864
14080,1187,865
14085,1194,871
14090,1183,867
14095,1178,878
14100,1173,883
14105,1178,884
14110,1181,888
14115,1177,892
14120,1175,894
14125,1169,898
14130,1168,902
14135,1162,902
14140,1163,904
14145,1152,903
14150,1149,903
14155,1152,906
14160,1149,905
14165,1151,912
14170,1151,912
14175,1152,912
14180,1133,911
14185,1133,912
14190,1139,923
14195,1131,917
14200,1122,910
14205,1125,909
14210,1120,906
14215,1120,910
14220,1121,905
14225,1113,905
14230,1102,906
14235,1113,906
14240,1115,900
14245,1105,904
14250,1099,897
14255,1103,898
14260,1097,898
14265,1098,894
14270,1104,898
14275,1093,894
14280,1092,889
14285,1094,894
14290,1093,889
14295,1103,878
14300,1091,887
14305,1079,883
14310,1089,875
14315,1080,877
14320,1079,872
14325,1073,876
14330,1073,871
14335,1069,866
14340,1063,873
14345,1067,869
14350,1066,868
14355,1065,866
14360,1066,867
14365,1050,868
14370,1055,860
14375,1043,861
14380,1047,862
14385,1032,858
14390,1034,851
14395,1036,857
14400,1030,863
14405,1027,853
14410,1027,854
14415,1017,856
14420,1005,855
14425,997,849
14430,1000,855
14435,988,847
14440,987,847
14445,973,850
14450,974,844
14455,964,846
14460,964,841
14465,947,842
14470,935,835
14475,944,834
14480,926,840
14485,918,834
14490,914,831
14495,905,827
14500,901,828
14505,894,820
14510,882,820
14515,872,819
14520,862,816
14525,864,817
14530,862,812
14535,844,808
14540,842,799
14545,833,799
14550,821,797
14555,823,793
14560,809,791
14565,804,787
14570,797,784
14575,790,784
14580,777,776
14585,781,773
14590,770,768
14595,771,761
14600,773,761
14605,767,749
14610,753,748
14615,756,745
14620,759,742
14625,749,732
14630,746,730
14635,756,728
14640,741,724
14645,741,720
14650,749,710
14655,740,706
14660,748,706
14665,747,698
14670,752,696
14675,753,693
14680,765,684
14685,757,683
14690,771,680
14695,764,675
14700,769,674
14705,777,669
14710,790,665
14715,792,665
14720,796,661
14725,814,661
14730,817,656
14735,821,649
14740,833,651
14745,835,648
14750,841,650
14755,861,650
14760,864,649
14765,869,647
14770,878,653
14775,889,651
14780,911,649
14785,912,656
14790,921,654
14795,943,658
14800,943,658
14805,955,657
14810,962,666
14815,974,659
14820,987,670
14825,999,665
14830,1007,670
14835,1017,677
14840,1024,679
14845,1035,684
14850,1055,689
14855,1057,696
14860,1075,700
14865,1076,702
14870,1095,707
14875,1104,712
14880,1097,727
14885,1110,724
14890,1116,728
14895,1123,738
14900,1130,745
14905,1135,750
14910,1139,756
14915,1149,761
14920,1148,768
14925,1155,769
14930,1169,777
14935,1167,788
14940,1169,790
14945,1175,797
14950,1176,808
14955,1172,812
14960,1182,822
14965,1177,830
14970,1185,829
14975,1188,834
14980,1189,843
14985,1184,843
14990,1191,852
14995,1183,852
15000,1185,859
15005,1186,865
15010,1193,867
15015,1182,874
15020,1186,881
15025,1188,883
15030,1177,885
15035,1179,886
15040,1173,889
15045,1171,899
15050,1173,901
15055,1162,899
15060,1171,899
15065,1171,904
15070,1160,905
15075,1159,908
15080,1150,907
15085,1159,916
15090,1156,912
15095,1147,914
15100,1142,911
15105,1138,906
15110,1144,913
15115,1140,905
15120,1136,909
15125,1132,913
15130,1132,913
15135,1133,905
15140,1121,909
15145,1112,904
15150,1122,907
15155,1113,907
15160,1107,907
15165,1113,906
15170,1111,900
15175,1099,904
15180,1104,902
15185,1101,892
15190,1099,895
15195,1101,896
15200,1101,892
15205,1090,891
15210,1095,893
15215,1084,888
15220,1097,887
15225,1091,884
15230,1091,885
15235,1086,883
15240,1085,880
15245,1078,878
15250,1070,877
15255,1085,871
15260,1069,876
15265,1072,877
15270,1077,872
15275,1058,870
15280,1069,866
15285,1057,866
15290,1054,866
15295,1049,866
15300,1056,862
15305,1048,859
15310,1047,854
15315,1037,858
15320,1036,857
15325,1031,853
15330,1031,852
15335,1020,855
15340,1012,852
15345,1011,849
15350,1005,849
15355,997,851
15360,992,848
15365,981,853
15370,986,850
15375,984,840
15380,968,842
15385,966,847
15390,956,838
15395,945,838
15400,942,833
15405,932,835
15410,929,832
15415,914,833
15420,913,826
15425,894,831
15430,900,827
15435,872,823
15440,877,823
15445,870,822
15450,859,820
15455,858,805
15460,850,813
15465,844,805
15470,834,804
15475,829,798
15480,825,795
15485,812,795
15490,812,791
15495,799,785
15500,796,783
15505,786,778
15510,794,775
15515,784,771
15520,772,762
15525,767,758
15530,762,763
15535,765,745
15540,762,747
15545,761,741
15550,759,734
15555,747,735
15560,745,730
15565,746,726
15570,752,718
15575,743,714
15580,742,710
15585,745,707
15590,745,697
15595,758,695
15600,755,694
15605,749,689
15610,758,681
15615,763,683
15620,771,680
15625,775,673
15630,774,669
15635,777,668
15640,786,660
15645,798,660
15650,806,659
15655,808,658
15660,816,649
15665,839,655
15670,836,652
15675,842,648
15680,847,649
15685,861,649
15690,874,650
15695,874,647
15700,891,646
15705,903,653
15710,914,654
15715,925,657
15720,927,652
15725,931,654
15730,951,656
15735,961,662
15740,971,667
15745,980,666
15750,986,666
15755,998,670
15760,1015,673
15765,1019,678
15770,1031,680
15775,1047,682
15780,1058,688
15785,1064,699
15790,1067,699
15795,1077,710
15800,1099,716
15805,1098,719
15810,1107,718
15815,1115,733
15820,1123,734
15825,1131,741
15830,1134,744
15835,1139,754
15840,1144,754
15845,1153,766
15850,1155,777
15855,1159,776
15860,1166,781
15865,1167,788
15870,1166,797
15875,1177,805
15880,1176,810
15885,1179,812
15890,1177,816
15895,1188,828
15900,1184,830
15905,1188,834
15910,1186,838
15915,1186,845
15920,1195,852
15925,1182,858
15930,1196,862
15935,1186,871
15940,1191,878
15945,1181,872
15950,1182,877
15955,1176,882
15960,1179,889
15965,1174,886
15970,1183,892
15975,1177,897
15980,1161,902
15985,1167,901
15990,1161,898
15995,1172,909
16000,1161,909
16004,1161,904
16010,1153,911
16015,1159,911
16020,1151,908
16024,1135,909
16030,1143,910
16035,1143,907
16040,1135,908
16045,1129,910
16050,1124,906
16055,1129,911
16059,1119,914
16065,1123,910
16070,1117,911
16075,1122,906
16079,1111,903
16085,1106,909
16090,1121,903
16094,1104,903
16100,1112,904
16105,1103,905
16110,1104,901
16114,1094,900
16120,1096,894
16125,1098,892
16129,1103,889
16135,1100,889
16140,1098,890
16145,1084,888
16149,1098,883
16155,1086,881
16160,1085,880
16165,1082,886
16170,1077,884
16175,1088,875
16180,1080,870
16184,1075,878
16190,1079,873
16195,1075,873
16200,1060,867
16204,1056,861
16210,1063,865
16215,1062,868
16219,1059,865
16225,1049,863
16230,1048,862
16235,1048,859
16239,1043,865
16245,1029,860
16250,1026,859
16254,1026,857
16260,1023,857
16265,1019,857
16270,1013,850
16274,1012,857
16280,1009,849
16285,997,845
16290,1000,841
16295,986,845
16300,975,848
16305,972,845
16309,969,842
16315,960,837
16320,951,843
16325,945,837
16329,932,840
16335,925,840
16340,927,833
16344,916,832
16350,905,822
16355,904,827
16360,895,827
16364,878,822
16370,877,820
16375,871,820
16379,862,812
16385,859,811
16390,847,810
16395,831,805
16400,836,805
16405,825,800
16410,814,794
16415,820,791
16420,803,788
16425,802,781
16430,790,782
16435,789,776
16440,774,775
16445,774,763
16450,770,762
16455,762,759
16460,774,751
16465,759,745
16470,761,744
16475,754,741
16480,747,735
16485,744,734
16490,753,727
16495,745,718
16500,745,717
16505,748,714
16510,757,708
16515,741,705
16520,749,703
16525,744,698
16530,760,698
16535,761,684
16540,759,685
16545,768,684
16550,761,671
16555,778,672
16560,766,666
16565,792,666
16570,782,662
16575,801,660
16580,804,662
16585,817,655
16590,822,656
16595,835,654
16600,842,654
16605,849,654
16610,849,652
16615,862,646
16620,861,647
16625,883,654
16630,900,647
16635,918,646
16640,909,652
16645,927,653
16650,937,652
16655,941,656
16660,946,655
16665,966,660
16670,969,661
16675,991,669
16680,998,668
16685,1007,675
16690,1015,671
16695,1022,683
16700,1045,685
16705,1051,688
16710,1055,687
16715,1060,695
16720,1082,702
16725,1076,708
16730,1083,712
16735,1089,717
16740,1117,725
16745,1111,732
16750,1119,730
16755,1130,742
16760,1134,743
16765,1140,755
16770,1141,761
16775,1146,773
16780,1158,775
16785,1166,780
16790,1165,785
16795,1174,793
16800,1171,797
16805,1174,804
16810,1192,816
16815,1186,820
16820,1183,824
16825,1184,831
16830,1181,836
16835,1182,842
16840,1193,840
16845,1186,845
16850,1178,852
16855,1183,858
16860,1176,857
16865,1193,868
16870,1192,871
16875,1187,879
16880,1177,882
16885,1176,886
16890,1160,883
16895,1175,889
16900,1184,898
16905,1165,895
16910,1166,898
16915,1170,895
16920,1164,905
16925,1161,907
16930,1161,904
16935,1149,907
16940,1151,907
16945,1146,914
16950,1145,913
16955,1145,910
16960,1141,913
16965,1140,916
16970,1120,910
16975,1132,916
16980,1134,911
16985,1128,910
16990,1127,911
16995,1119,915
17000,1119,906
17005,1121,908
17010,1120,906
17015,1111,903
17020,1116,902
17025,1109,903
17030,1104,899
17035,1107,900
17040,1107,896
17045,1088,896
17050,1100,894
17055,1101,889
17060,1090,892
17065,1096,890
17070,1086,887
17075,1086,890
17080,1093,882
17085,1078,880
17090,1085,882
17095,1080,879
17100,1079,875
17105,1076,875
17110,1080,883
17115,1064,873
17120,1065,875
17125,1071,865
17130,1068,864
17135,1064,868
17140,1063,865
17145,1065,864
17150,1058,863
17155,1045,864
17160,1047,862
17165,1044,861
17170,1038,866
17175,1031,862
17180,1028,859
17185,1019,856
17190,1022,855
17195,1019,851
17200,1008,855
17205,1014,851
17210,1002,851
17215,991,849
17220,984,851
17225,975,845
17230,987,838
17235,968,845
17240,960,842
17245,957,843
17250,938,837
17255,942,839
17260,932,832
17265,934,834
17270,918,833
17275,904,824
17280,906,831
17285,903,824
17290,880,821
17295,875,821
17300,875,812
17305,857,819
17310,853,823
17315,853,813
17320,841,808
17325,840,799
17330,828,803
17335,828,793
17340,825,793
17345,805,792
17350,804,783
17355,795,784
17360,785,777
17365,788,776
17370,779,765
17375,777,757
17380,761,757
17385,768,757
17390,755,754
17395,759,749
17400,753,746
17405,758,737
17410,751,735
17415,747,729
17420,754,726
17425,740,714
17430,752,719
17435,741,709
17440,746,708
17445,752,701
17450,753,695
17455,750,693
17460,756,685
17465,762,684
17470,766,682
17475,768,682
17480,774,679
17485,774,668
17490,780,672
17495,785,663
17500,795,665
17505,805,657
17510,816,660
17515,819,660
17520,823,654
17525,835,652
17530,851,649
17535,855,648
17540,874,645
17545,882,651
17550,885,649
17555,880,649
17560,896,653
17565,910,649
17570,921,650
17575,927,653
17580,945,654
17585,946,658
17590,962,656
17595,959,661
17600,978,663
17605,996,666
17610,1009,673
17615,1015,669
17620,1020,684
17625,1026,680
17630,1038,688
17635,1056,687
17640,1057,693
17645,1070,697
17650,1077,701
17655,1081,712
17660,1093,716
17665,1105,718
17670,1101,732
17675,1114,734
17680,1119,736
17685,1128,749
17690,1138,744
17695,1151,756
17700,1151,764
17705,1151,768
17710,1165,777
17715,1166,782
17720,1172,784
17725,1171,793
17730,1172,802
17735,1186,806
17740,1178,813
17745,1179,817
17750,1184,821
17755,1191,832
17760,1182,834
17765,1187,842
17770,1189,846
17775,1180,853
17780,1200,859
17785,1193,858
17790,1196,868
17795,1191,874
17800,1176,880
17805,1184,881
17810,1185,882
17815,1172,881
17820,1180,893
17825,1188,894
17830,1176,893
17835,1174,892
17840,1162,902
17845,1167,904
17850,1165,902
17855,1161,906
17860,1154,909
17865,1148,907
17870,1151,908
17875,1143,913
17880,1148,913
17885,1142,906
17890,1141,911
17895,1138,905
17900,1135,917
17905,1117,910
17910,1131,910
17915,1131,909
17920,1126,912
17925,1127,906
17930,1123,911
17935,1118,908
17940,1110,904
17945,1110,901
17950,1122,900
17955,1102,908
17960,1113,900
17965,1101,899
17970,1105,893
17975,1105,897
17980,1098,899
17985,1104,894
17990,1093,891
17995,1080,885
18000,1089,882
18005,1096,886
18010,1091,882
18015,1082,878
18020,1082,881
18025,1077,883
18030,1071,884
18035,1078,880
18040,1081,878
18045,1076,871
18050,1077,873
18055,1068,871
18060,1066,865
18065,1056,869
18070,1053,866
18075,1049,861
18080,1056,862
18085,1048,864
18090,1052,863
18095,1035,857
18100,1041,858
18105,1037,856
18110,1038,857
18115,1022,862
18120,1016,853
18125,1009,851
18130,1009,849
18135,999,854
18140,1004,851
18145,989,847
18150,984,846
18155,980,843
18160,963,841
18165,968,848
18170,964,839
18175,958,841
18180,944,837
18185,940,841
18190,941,837
18195,922,826
18200,914,834
18205,905,836
18210,897,825
18215,897,826
18220,883,822
18225,889,818
18230,864,816
18235,861,814
18240,860,814
18245,845,812
18250,842,802
18255,823,801
18260,825,804
18265,816,793
18270,816,793
18275,809,787
18280,796,783
18285,793,776
18290,787,774
18295,783,773
18300,773,766
18305,771,757
18310,775,759
18315,767,760
18320,767,745
18325,759,747
18330,766,741
18335,758,739
18340,749,736
18345,756,729
18350,753,724
18355,738,718
18360,752,713
18365,747,716
18370,753,704
18375,753,711
18380,754,695
18385,752,691
18390,756,687
18395,766,683
18400,759,681
18405,767,672
18410,784,671
18415,764,672
18420,786,672
18425,784,668
18430,794,662
18435,807,665
18440,810,655
18445,813,657
18450,816,657
18455,845,648
18460,845,648
18465,855,650
18470,860,650
18475,869,648
18480,882,649
18485,889,651
18490,907,654
18495,912,652
18500,923,651
18505,930,655
18510,944,657
18515,959,654
18520,966,660
18525,980,661
18530,990,661
18535,994,668
18540,1009,669
18545,1016,671
18550,1023,683
18555,1041,685
18560,1038,689
18565,1049,696
18570,1070,697
18575,1074,701
18580,1087,706
18585,1083,709
18590,1093,716
18595,1114,725
18600,1112,732
18605,1125,740
18610,1132,737
18615,1129,746
18620,1139,753
18625,1152,756
18630,1150,762
18635,1146,776
18640,1161,778
18645,1157,780
18650,1176,793
18655,1170,799
18660,1170,800
18665,1182,813
18670,1189,814
18675,1174,825
18680,1190,828
18685,1185,836
18690,1187,835
18695,1185,844
18700,1185,848
18705,1181,856
18710,1179,861
18715,1187,862
18720,1188,865
18725,1187,874
18730,1186,875
18735,1179,883
18740,1189,887
18745,1178,883
18750,1180,885
18755,1182,896
18760,1177,891
18765,1173,901
18770,1163,899
18775,1170,904
18780,1163,908
18785,1173,904
18790,1159,904
18795,1148,913
18800,1158,905
18805,1153,905
18810,1140,909
18815,1153,915
18820,1149,911
18825,1139,917
18830,1131,911
18835,1129,909
18840,1132,915
18845,1114,907
18850,1126,913
18855,1123,907
18860,1109,913
18865,1118,908
18870,1111,900
18875,1117,906
18880,1121,901
18885,1105,899
18890,1110,898
18895,1109,901
18900,1107,898
18905,1099,896
18910,1088,895
18915,1098,891
18920,1090,890
18925,1093,892
18930,1099,889
18935,1088,885
18940,1090,883
18945,1085,883
18950,1083,885
18955,1083,878
18960,1077,872
18965,1075,878
18970,1076,872
18975,1072,871
18980,1066,872
18985,1074,871
18990,1073,867
18995,1068,864
19000,1054,862
19005,1063,866
19010,1050,861
19015,1054,864
19020,1045,868
19025,1046,857
19030,1029,855
19035,1029,856
19040,1027,853
19045,1024,854
19050,1014,856
19055,1011,848
19060,1005,850
19065,1008,852
19070,986,849
19075,991,846
19080,980,842
19085,969,848
19090,972,840
19095,963,845
19100,952,840
19105,950,842
19110,948,839
19115,934,839
19120,931,837
19125,915,838
19130,916,834
19135,903,825
19140,894,825
19145,890,825
19150,869,821
19155,874,820
19160,860,815
19165,859,812
19170,857,810
19175,841,814
19180,837,803
19185,827,799
19190,826,798
19195,810,792
19200,805,788
19205,796,790
19210,805,783
19215,802,779
19220,778,769
19225,779,769
19230,774,772
19235,776,762
19240,765,755
19245,758,752
19250,756,748
19255,762,747
19260,757,738
19265,748,731
19270,752,733
19275,750,722
19280,751,721
19285,750,717
19290,744,714
19295,749,706
19300,752,701
19305,749,697
19310,752,696
19315,762,687
19320,753,684
19325,762,686
19330,761,678
19335,774,677
19340,779,668
19345,790,668
19350,796,668
19355,795,661
19360,803,657
19365,798,656
19370,809,658
19375,822,658
19380,826,653
19385,840,653
19390,850,650
19395,858,649
19400,858,655
19405,873,651
19410,892,651
19415,895,651
19420,906,650
19425,916,656
19430,926,654
19435,928,655
19440,950,657
19445,953,661
19450,967,661
19455,975,664
19460,992,662
19465,999,673
19470,1007,675
19475,1020,678
19480,1032,679
19485,1035,686
19490,1050,689
19495,1056,697
19500,1074,697
19505,1079,708
19510,1090,710
19515,1094,717
19520,1103,721
19525,1112,724
19530,1115,733
19535,1118,743
19540,1129,745
19545,1148,754
19550,1137,759
19555,1141,763
19560,1155,772
19565,1160,771
19570,1157,777
19575,1169,788
19580,1172,797
19585,1172,798
19590,1173,805
19595,1184,816
19600,1180,818
19605,1186,821
19610,1186,825
19615,1192,837
19620,1188,840
19625,1192,853
19630,1192,850
19635,1186,857
19640,1184,858
19645,1183,864
19650,1192,869
19655,1182,876
19660,1182,880
19665,1184,882
19670,1184,883
19675,1195,888
19680,1186,886
19685,1177,894
19690,1185,899
19695,1164,900
19700,1170,904
19705,1160,906
19710,1163,902
19715,1153,909
19720,1155,909
19725,1153,906
19730,1147,906
19735,1145,910
19740,1152,907
19745,1135,908
19750,1141,911
19755,1133,908
19760,1131,909
19765,1124,913
19770,1123,916
19775,1117,906
19780,1125,907
19785,1124,907
19790,1117,906
19795,1120,903
19800,1100,907
19805,1114,903
19810,1104,900
19815,1105,901
19820,1111,899
19825,1100,899
19830,1109,897
19835,1100,897
19840,1095,894
19845,1098,888
19850,1090,890
19855,1090,887
19860,1093,887
19865,1088,884
19870,1084,880
19875,1084,875
19880,1074,878
19885,1076,873
19890,1086,878
19895,1063,872
19900,1067,873
19905,1068,872
19910,1073,867
19915,1072,864
19920,1063,868
19925,1070,863
19930,1045,862
19935,1048,865
19940,1049,860
19945,1040,859
19950,1050,859
19955,1045,855
19960,1030,855
19965,1036,856
19970,1028,852
19975,1026,856
19980,1018,854
19985,1009,853
19990,1003,853
19995,995,847
20000,991,847
20005,993,849
20010,980,842
20015,969,847
20020,979,850
20025,955,839
20030,962,839
20035,955,835
20040,940,835
20045,936,835
20050,918,838
20055,926,830
20060,916,837
20065,894,828
20070,892,828
20075,880,828
20080,879,820
20085,865,813
20090,856,817
20095,858,803
20100,850,806
20105,841,802
20110,831,800
20115,831,803
20120,819,793
20125,810,797
20130,803,790
20135,796,783
20140,796,781
20145,784,774
20150,783,770
20155,772,769
20160,776,766
20165,767,758
20170,765,751
20175,758,748
20180,757,744
20185,755,743
20190,751,738
20195,750,735
20200,760,732
20205,744,724
20210,743,714
20215,751,715
20220,750,709
20225,745,704
20230,750,701
20235,757,699
20240,750,688
20245,760,688
20250,757,687
20255,762,681
20260,767,678
20265,777,678
20270,773,675
20275,774,669
20280,796,658
20285,802,662
20290,792,661
20295,820,657
20300,814,654
20305,830,656
20310,835,651
20315,839,650
20320,848,648
20325,856,652
20330,864,648
20335,894,647
20340,891,645
20345,898,650
20350,911,645
20355,917,654
20360,933,656
20365,945,655
20370,955,656
20375,960,660
20380,980,662
20385,985,669
20390,993,670
20395,1009,670
20400,1009,672
20405,1029,681
20410,1023,686
20415,1046,688
20420,1061,687
20425,1065,695
20430,1059,695
20435,1080,713
20440,1090,705
20445,1086,712
20450,1103,724
20455,1109,727
20460,1118,737
20465,1128,738
20470,1139,746
20475,1135,749
20480,1143,760
20485,1155,765
20490,1159,773
20495,1159,779
20500,1184,791
20505,1177,791
20510,1168,795
20515,1186,798
20520,1186,808
20525,1167,818
20530,1186,823
20535,1183,828
20540,1170,827
20545,1185,835
20550,1192,845
20555,1191,848
20560,1185,854
20565,1187,852
20570,1187,866
20575,1188,867
20580,1185,872
20585,1187,869
20590,1185,882
20595,1189,882
20600,1186,886
20605,1178,891
20610,1181,892
20615,1173,890
20620,1172,896
20625,1174,898
20630,1164,898
20635,1160,904
20640,1159,912
20645,1147,906
20650,1156,905
20655,1150,909
20660,1148,913
20665,1148,908
20670,1142,912
20675,1142,911
20680,1133,913
20685,1140,907
20690,1135,910
20695,1132,911
20700,1129,909
20705,1132,908
20710,1118,906
20715,1129,909
20720,1115,907
20725,1116,904
20730,1105,910
20735,1111,908
20740,1106,898
20745,1112,896
20750,1101,901
20755,1102,901
20760,1100,893
20765,1092,889
20770,1089,895
20775,1101,891
20780,1094,890
20785,1085,891
20790,1096,888
20795,1082,884
20800,1079,884
20805,1082,884
20810,1072,878
20815,1084,882
20820,1081,876
20825,1078,877
20830,1075,874
20835,1068,866
20840,1069,869
20845,1063,868
20850,1056,866
20855,1054,867
20860,1058,869
20865,1049,860
20870,1044,856
20875,1043,863
20880,1037,864
20885,1037,861
20890,1032,858
20895,1033,854
20900,1029,847
20905,1017,849
20910,1017,857
20915,1014,853
20920,993,847
20925,1001,849
20930,994,847
20935,983,844
20940,974,843
20945,972,843
20950,967,839
20955,961,838
20960,951,843
20965,948,837
20970,945,835
20975,934,834
20980,921,831
20985,912,833
20990,907,830
20995,899,828
21000,902,822
21005,888,819
21010,872,818
21015,862,813
21020,862,816
21025,857,813
21030,843,808
21035,828,802
21040,835,803
21045,828,797
21050,817,798
21055,811,794
21060,810,787
21065,799,783
21070,797,777
21075,793,778
21080,786,771
21085,767,767
21090,775,762
21095,767,762
21100,761,756
21105,760,753
21110,752,744
21115,751,740
21120,754,735
21125,748,736
21130,746,728
21135,746,723
21140,752,715
21145,750,710
21150,747,708
21155,747,706
21160,751,702
21165,739,697
21170,747,686
21175,759,685
21180,763,677
21185,763,680
21190,774,670
21195,771,671
21200,786,663
21205,789,665
21210,800,661
21215,805,661
21220,806,657
21225,811,651
21230,821,656
21235,824,657
21240,842,648
21245,852,651
21250,860,646
21255,868,647
21260,877,646
21265,874,650
21270,891,651
21275,907,653
21280,915,644
21285,923,654
21290,933,655
21295,949,657
21300,945,662
21305,970,662
21310,977,665
21315,996,666
21320,993,667
21325,1005,671
21330,1019,674
21335,1033,678
21340,1040,683
21345,1058,693
21350,1069,693
21355,1060,695
21360,1073,708
21365,1094,712
21370,1096,716
21375,1111,723
21380,1106,725
21385,1106,736
21390,1116,741
21395,1129,739
21400,1131,748
21405,1146,755
21410,1135,760
21415,1157,768
21420,1152,772
21425,1163,783
21430,1166,783
21435,1171,794
21440,1174,798
21445,1183,800
21450,1173,813
21455,1179,820
21460,1179,824
21465,1191,828
21470,1179,832
21475,1186,836
21480,1190,842
21485,1197,846
21490,1181,854
21495,1190,858
21500,1186,866
21505,1184,870
21510,1187,869
21515,1183,878
21520,1182,875
21525,1173,885
21530,1172,890
21535,1184,889
21540,1177,894
21545,1179,896
21550,1177,897
21555,1172,901
21560,1161,901
21565,1160,905
21570,1157,915
21575,1164,915
21580,1151,909
21585,1156,913
21590,1147,909
21595,1140,911
21600,1145,910
21605,1134,911
21610,1139,910
21615,1137,913
21620,1135,910
21625,1126,909
21630,1124,909
21635,1127,908
21640,1116,905
21645,1118,908
21650,1120,907
21655,1121,901
21660,1115,903
21665,1113,901
21670,1101,901
21675,1108,899
21680,1103,891
21685,1108,893
21690,1099,896
21695,1099,896
21700,1095,889
21705,1099,890
21710,1093,878
21715,1094,889
21720,1086,887
21725,1087,883
21730,1075,881
21735,1078,877
21740,1077,875
21745,1078,881
21750,1072,876
21755,1080,874
21760,1074,871
21765,1074,872
21770,1064,868
21775,1061,869
21780,1064,866
21785,1051,866
21790,1048,865
21795,1054,863
21800,1046,857
21805,1040,861
21810,1040,856
21815,1034,857
21820,1023,855
21825,1027,851
21830,1019,854
21835,1021,857
21840,1023,852
21845,1007,855
21850,1004,846
21855,1002,849
21860,989,848
21865,983,844
21870,975,847
21875,964,842
21880,956,839
21885,958,842
21890,954,837
21895,943,834
21900,925,837
21905,923,835
21910,927,830
21915,905,833
21920,890,828
21925,898,826
21930,881,822
21935,877,817
21940,881,816
21945,865,820
21950,860,817
21955,856,808
21960,845,802
21965,831,804
21970,826,810
21975,821,795
21980,815,790
21985,802,791
21990,795,782
21995,789,785
22000,783,773
22005,792,776
22010,780,768
22015,766,763
22020,770,764
22025,771,753
22030,769,753
22035,755,747
22040,749,743
22045,754,736
22050,756,737
22055,747,726
22060,753,721
22065,748,722
22070,754,714
22075,749,715
22080,750,706
22085,761,705
22090,751,695
22095,758,691
22100,750,689
22105,749,686
22110,771,686
22115,753,676
22120,774,672
22125,774,667
22130,784,673
22135,798,668
22140,792,661
22145,805,658
22150,796,653
22155,814,657
22160,823,653
22165,831,651
22170,842,654
22175,854,652
22180,859,645
22185,869,650
22190,877,653
22195,881,648
22200,893,653
22205,910,654
22210,923,654
22215,923,655
22220,938,658
22225,946,657
22230,961,658
22235,970,662
22240,983,662
22245,993,670
22250,1004,669
22255,1015,674
22260,1031,681
22265,1036,683
22270,1046,685
22275,1062,688
22280,1055,696
22285,1065,699
22290,1076,708
22295,1087,712
22300,1102,722
22305,1105,721
22310,1119,729
22315,1115,739
22320,1117,742
22325,1129,742
22330,1133,744
22335,1152,756
22340,1143,762
22345,1153,773
22350,1154,783
22355,1155,786
22360,1166,791
22365,1179,790
22370,1180,802
22375,1179,803
22380,1183,810
22385,1182,816
22390,1178,824
22395,1182,832
22400,1188,837
22405,1185,840
22410,1200,846
22415,1185,847
22420,1179,852
22425,1185,865
22430,1180,866
22435,1184,870
22440,1183,876
22445,1184,877
22450,1176,881
22455,1185,892
22460,1179,889
22465,1173,892
22470,1183,901
22475,1180,897
22480,1170,899
22485,1169,906
22490,1165,908
22495,1153,902
22500,1159,905
22505,1156,912
22510,1150,908
22515,1141,909
22520,1147,909
22525,1135,913
22530,1136,907
22535,1129,915
22540,1138,916
22545,1134,913
22550,1131,917
22555,1122,912
22560,1122,909
22565,1121,908
22570,1113,912
22575,1117,899
22580,1118,908
22585,1117,907
22590,1102,898
22595,1103,903
22600,1108,896
22605,1093,897
22610,1100,896
22615,1103,890
22620,1105,889
22625,1095,893
22630,1100,888
22635,1089,884
22640,1087,888
22645,1089,888
22650,1082,880
22655,1090,883
22660,1088,881
22665,1072,880
22670,1086,881
22675,1073,875
22680,1083,874
22685,1067,873
22690,1069,868
22695,1069,873
22700,1063,863
22705,1067,860
22710,1060,869
22715,1067,865
22720,1056,861
22725,1054,860
22730,1044,857
22735,1040,858
22740,1034,860
22745,1025,857
22750,1032,856
22755,1031,856
22760,1018,853
22765,1004,856
22770,1008,851
22775,999,853
22780,994,852
22785,993,847
22790,992,848
22795,983,842
22800,973,844
22805,972,837
22810,959,840
22815,957,844
22820,946,836
22825,932,836
22830,934,835
22835,923,831
22840,913,830
22845,910,836
22850,908,829
22855,892,826
22860,881,818
22865,880,822
22870,871,820
22875,866,816
22880,857,806
22885,855,807
22890,836,801
22895,829,801
22900,820,796
22905,818,794
22910,813,795
22915,807,787
22920,791,782
22925,790,778
22930,790,782
22935,783,771
22940,778,766
22945,770,765
22950,774,756
22955,769,755
22960,760,751
22965,756,741
22970,746,741
22975,756,732
22980,749,737
22985,751,730
22990,735,720
22995,754,716
23000,739,713
23005,753,704
23010,747,701
23015,745,697
23020,745,702
23025,762,690
23030,757,684
23035,760,684
23040,776,682
23045,766,684
23050,773,668
23055,780,667
23060,785,670
23065,791,667
23070,803,661
23075,808,654
23080,806,658
23085,811,655
23090,832,656
23095,837,653
23100,837,649
23105,851,645
23110,870,649
23115,884,655
23120,891,647
23125,893,649
23130,906,648
23135,909,651
23140,928,651
23145,930,653
23150,936,653
23155,962,658
23160,961,654
23165,983,657
23170,982,670
23175,993,665
23180,1007,669
23185,1004,677
23190,1024,683
23195,1044,683
23200,1048,686
23205,1053,695
23210,1068,695
23215,1068,702
23220,1080,710
23225,1090,713
23230,1100,718
23235,1112,725
23240,1121,732
23245,1125,733
23250,1127,740
23255,1139,748
23260,1134,755
23265,1140,763
23270,1140,771
23275,1154,777
23280,1153,781
23285,1163,782
23290,1168,790
23295,1171,800
23300,1177,806
23305,1180,806
23310,1179,817
23315,1185,815
23320,1184,829
23325,1188,831
23330,1180,839
23335,1191,843
23340,1193,850
23345,1180,857
23350,1202,861
23355,1181,862
23360,1188,873
23365,1180,874
23370,1184,880
23375,1193,877
23380,1175,880
23385,1167,882
23390,1184,888
23395,1177,894
23400,1179,896
23405,1157,903
23410,1158,903
23415,1157,896
23420,1165,904
23425,1158,902
23430,1155,907
23435,1154,908
23440,1152,912
23445,1143,915
23450,1154,912
23455,1139,908
23460,1138,911
23465,1139,915
23470,1127,919
23475,1139,912
23480,1129,910
23485,1117,914
23490,1126,906
23495,1132,905
23500,1124,910
23505,1109,911
23510,1114,909
23515,1105,905
23520,1105,901
23525,1111,898
23530,1096,903
23535,1105,898
23540,1103,894
23545,1091,897
23550,1094,899
23555,1095,890
23560,1091,893
23565,1089,893
23570,1095,887
23575,1093,884
23580,1091,878
23585,1085,884
23590,1085,880
23595,1078,874
23600,1079,876
23605,1069,875
23610,1073,874
23615,1061,870
23620,1070,870
23625,1054,867
23630,1065,867
23635,1066,866
23640,1060,868
23645,1057,866
23650,1056,864
23655,1050,862
23660,1037,864
23665,1040,860
23670,1039,858
23675,1021,855
23680,1016,856
23685,1021,855
23690,1021,851
23695,1014,854
23700,1002,856
23705,1001,851
23710,991,848
23715,997,851
23720,985,848
23725,986,845
23730,972,844
23735,957,837
23740,955,843
23745,955,844
23750,943,835
23755,941,838
23760,921,836
23765,923,830
23770,907,829
23775,908,830
23780,895,826
23785,887,827
23790,887,823
23795,859,817
23800,863,819
23805,862,812
23810,846,811
23815,847,806
23820,828,813
23825,829,798
23830,816,796
23835,814,793
23840,812,791
23845,804,791
23850,803,784
23855,789,774
23860,783,780
23865,777,773
23870,774,764
23875,774,764
23880,769,754
23885,761,748
23890,758,740
23895,748,747
23900,755,738
23905,737,733
23910,755,725
23915,743,721
23920,749,721
23925,751,710
23930,742,715
23935,747,705
23940,752,704
23945,764,704
23950,754,689
23955,757,691
23960,766,689
23965,762,683
23970,773,678
23975,778,669
23980,787,672
23985,785,669
23990,787,660
23995,798,661
24000,800,658
24005,808,659
24010,823,657
24015,818,659
24020,832,660
24025,839,648
24030,855,652
24035,849,652
24040,869,651
24045,876,646
24050,890,648
24055,896,652
24060,904,646
24065,919,652
24070,940,651
24075,931,660
24080,950,657
24085,966,655
24090,966,665
24095,974,663
24100,992,666
24105,1000,669
24110,1007,671
24115,1022,678
24120,1029,677
24125,1041,684
24130,1053,693
24135,1058,695
24140,1067,701
24145,1074,702
24150,1084,710
24155,1088,720
24160,1103,716
24165,1106,729
24170,1115,729
24175,1126,741
24180,1131,743
24185,1146,753
24190,1135,750
24195,1143,762
24200,1166,771
24205,1165,778
24210,1164,785
24215,1170,787
24220,1173,788
24225,1183,805
24230,1170,809
24235,1178,806
24240,1184,817
24245,1176,824
24250,1188,827
24255,1185,834
24260,1184,839
24265,1191,844
24270,1188,852
24275,1181,855
24280,1188,853
24285,1185,861
24290,1185,871
24295,1179,875
24300,1189,882
24305,1182,881
24310,1175,887
24315,1175,885
24320,1179,898
24325,1175,894
24330,1170,897
24335,1167,897
24340,1155,901
24345,1160,907
24350,1158,905
24355,1160,905
24360,1149,910
24365,1155,909
24370,1150,911
24375,1148,916
24380,1153,907
24385,1143,910
24390,1144,910
24395,1137,908
24400,1138,914
24405,1125,911
24410,1129,909
24415,1124,912
24420,1118,910
24425,1117,905
24430,1120,906
24435,1113,905
24440,1118,907
24445,1115,906
24450,1114,906
24455,1108,900
24460,1108,898
24465,1092,898
24470,1089,899
24475,1093,899
24480,1099,891
24485,1098,885
24490,1096,891
24495,1083,892
24500,1087,889
24505,1086,882
24510,1092,883
24515,1080,883
24520,1079,875
24525,1077,882
24530,1078,876
24535,1073,878
24540,1070,875
24545,1066,871
24550,1067,875
24555,1069,869
24560,1063,869
24565,1066,863
24570,1066,869
24575,1055,864
24580,1058,864
24585,1051,864
24590,1044,860
24595,1044,863
24600,1024,857
24605,1033,853
24610,1029,860
24615,1014,854
24620,1009,856
24625,1012,853
24630,1007,851
24635,999,850
24640,995,850
24645,994,844
24650,987,843
24655,967,841
24660,965,840
24665,965,845
24670,959,843
24675,955,844
24680,934,839
24685,930,836
24690,920,839
24695,929,832
24700,911,833
24705,899,826
24710,905,825
24715,889,827
24720,882,825
24725,870,822
24730,861,819
24735,860,818
24740,840,807
24745,840,805
24750,839,802
24755,831,803
24760,814,795
24765,805,791
24770,797,786
24775,796,788
24780,792,782
24785,782,780
24790,783,772
24795,778,766
24800,777,764
24805,772,755
24810,764,755
24815,761,749
24820,759,749
24825,757,741
24830,751,738
24835,748,729
24840,756,731
24845,738,723
24850,743,722
24855,743,713
24860,743,711
24865,747,706
24870,758,697
24875,752,694
24880,757,691
24885,765,689
24890,767,683
24895,766,680
24900,769,676
24905,763,675
24910,784,665
24915,776,670
24920,791,659
24925,799,660
24930,797,657
24935,818,659
24940,821,656
24945,824,655
24950,847,654
24955,851,652
24960,860,658
24965,859,652
24970,872,652
24975,877,652
24980,892,647
24985,897,648
24990,906,649
24995,923,649
25000,920,650
25005,935,661
25010,952,657
25015,959,658
25020,973,661
25025,974,661
25030,992,667
25035,1000,670
25040,1017,672
25045,1024,679
25050,1025,679
25055,1044,686
25060,1058,688
25065,1066,697
25070,1070,702
25075,1077,708
25080,1091,713
25085,1095,714
25090,1109,727
25095,1121,727
25100,1120,736
25105,1133,738
25110,1122,748
25115,1130,748
25120,1154,760
25125,1156,767
25130,1157,770
25135,1157,775
25140,1159,782
25145,1158,789
25150,1172,791
25155,1175,803
25160,1179,813
25165,1180,813
25170,1177,824
25175,1181,826
25180,1192,826
25185,1199,837
25190,1193,839
25195,1183,848
25200,1190,852
25205,1177,865
25210,1186,864
25215,1198,874
25220,1187,875
25225,1179,881
25230,1182,881
25235,1179,887
25240,1186,883
25245,1178,889
25250,1179,893
25255,1173,897
25260,1168,897
25265,1161,895
25270,1172,902
25275,1161,903
25280,1165,910
25285,1158,909
25290,1160,916
25295,1159,909
25300,1152,913
25305,1142,918
25310,1143,911
25315,1138,915
25320,1132,914
25325,1133,917
25330,1131,906
25335,1124,905
25340,1127,905
25345,1124,912
25350,1120,909
25355,1116,904
25360,1125,907
25365,1116,903
25370,1117,908
25375,1111,902
25380,1111,903
25385,1103,900
25390,1105,890
25395,1100,894
25400,1098,894
25405,1099,896
25410,1100,887
25415,1099,881
25420,1093,891
25425,1087,890
25430,1085,890
25435,1082,883
25440,1092,880
25445,1086,888
25450,1075,877
25455,1085,879
25460,1075,877
25465,1083,875
25470,1074,869
25475,1066,870
25480,1070,868
25485,1078,868
25490,1067,866
25495,1058,862
25500,1054,863
25505,1050,864
25510,1049,865
25515,1043,862
25520,1050,865
25525,1041,860
25530,1038,852
25535,1026,852
25540,1029,854
25545,1023,852
25550,1009,852
25555,1004,852
25560,1008,850
25565,998,846
25570,990,849
25575,988,851
25580,976,850
25585,973,847
25590,970,841
25595,960,842
25600,951,840
25605,941,834
25610,935,836
25615,926,835
25620,924,839
25625,912,829
25630,907,831
25635,895,822
25640,891,825
25645,886,819
25650,878,821
25655,872,818
25660,857,814
25665,858,809
25670,851,806
25675,834,809
25680,825,802
25685,819,800
25690,815,792
25695,806,790
25700,787,786
25705,802,783
25710,791,778
25715,783,775
25720,781,767
25725,778,765
25730,771,760
25735,765,755
25740,756,756
25745,764,747
25750,760,747
25755,759,735
25760,753,735
25765,742,731
25770,754,723
25775,754,725
25780,747,711
25785,746,714
25790,753,706
25795,751,698
25800,746,695
25805,751,693
25810,757,688
25815,763,687
25820,769,679
25825,775,675
25830,768,674
25835,778,674
25840,788,667
25845,784,662
25850,792,657
25855,799,660
25860,805,655
25865,814,662
25870,831,652
25875,824,656
25880,847,645
25885,846,647
25890,852,654
25895,859,643
25900,885,649
25905,886,647
25910,898,653
25915,905,654
25920,914,655
25925,932,649
25930,939,654
25935,944,651
25940,962,658
25945,970,663
25950,978,664
25955,980,666
25960,993,669
25965,996,675
25970,1028,677
25975,1029,682
25980,1036,685
25985,1045,689
25990,1062,694
25995,1069,700
26000,1074,704
26005,1084,711
26010,1086,715
26015,1102,713
26020,1109,726
26025,1104,732
26030,1115,736
26035,1133,745
26040,1137,750
26045,1142,755
26050,1143,766
26055,1157,769
26060,1157,776
26065,1161,783
26070,1161,783
26075,1172,796
26080,1172,795
26085,1174,803
26090,1173,814
26095,1176,822
26100,1194,825
26105,1185,828
26110,1188,833
26115,1195,841
26120,1194,849
26125,1183,848
26130,1186,863
26135,1183,858
26140,1182,866
26145,1188,872
26150,1174,871
26155,1177,879
26160,1183,882
26165,1189,886
26170,1180,888
26175,1172,889
26180,1173,891
26185,1177,895
26190,1164,895
26195,1161,896
26200,1164,903
26205,1157,905
26210,1152,905
26215,1164,909
26220,1154,909
26225,1157,906
26230,1151,911
26235,1147,911
26240,1138,912
26245,1138,902
26250,1135,912
26255,1132,911
26260,1139,912
26265,1130,912
26270,1133,912
26275,1117,909
26280,1121,916
26285,1115,909
26290,1118,904
26295,1109,910
26300,1103,900
26305,1106,905
26310,1110,899
26315,1108,901
26320,1102,899
26325,1105,895
26330,1097,895
26335,1101,894
26340,1095,892
26345,1098,893
26350,1091,892
26355,1088,885
26360,1092,886
26365,1083,881
26370,1084,885
26375,1080,875
26380,1090,876
26385,1078,880
26390,1078,876
26395,1084,875
26400,1069,868
26405,1062,870
26410,1071,875
26415,1065,861
26420,1071,866
26425,1066,869
26430,1060,865
26435,1048,864
26440,1041,863
26445,1040,857
26450,1044,859
26455,1028,855
26460,1032,858
26465,1016,851
26470,1028,853
26475,1016,852
26480,1013,849
26485,1010,853
26490,1000,855
26495,995,846
26500,985,851
26505,988,851
26510,970,845
26515,971,843
26520,964,844
26525,959,843
26530,952,835
26535,937,837
26540,933,838
26545,928,837
26550,922,839
26555,909,826
26560,900,825
26565,887,825
26570,877,822
26575,885,824
26580,873,821
26585,875,816
26590,858,816
26595,845,811
26600,845,806
26605,833,801
26610,839,799
26615,827,790
26620,813,793
26625,807,798
26630,800,787
26635,792,779
26640,801,771
26645,787,770
26650,777,770
26655,769,771
26660,765,765
26665,773,756
26670,764,757
26675,762,742
26680,745,742
26685,757,738
26690,754,727
26695,746,730
26700,744,727
26705,747,716
26710,746,713
26715,746,711
26720,751,704
26725,743,704
26730,750,694
26735,754,693
26740,754,686
26745,759,683
26750,764,680
26755,770,675
26760,772,672
26765,767,670
26770,788,668
26775,793,664
26780,798,662
26785,809,660
26790,807,659
26795,816,650
26800,824,662
26805,833,650
26810,838,654
26815,852,653
26820,863,651
26825,874,646
26830,886,650
26835,892,649
26840,888,650
26845,906,654
26850,922,655
26855,921,652
26860,931,655
26865,953,654
26870,960,656
26875,968,666
26880,978,662
26885,993,672
26890,1007,666
26895,1003,671
26900,1029,681
26905,1028,682
26910,1042,684
26915,1051,693
26920,1064,696
26925,1068,701
26930,1085,712
26935,1079,715
26940,1096,722
26945,1102,723
26950,1110,723
26955,1111,733
26960,1124,739
26965,1132,751
26970,1145,746
26975,1139,753
26980,1147,764
26985,1161,770
26990,1152,775
26995,1157,781
27000,1166,783
27005,1175,792
27010,1177,803
27015,1186,802
27020,1175,814
27025,1177,821
27030,1191,826
27035,1180,832
27040,1181,838
27045,1189,843
27050,1192,848
27055,1186,851
27060,1189,853
27065,1187,863
27070,1184,868
27075,1184,868
27080,1188,873
27085,1186,880
27090,1185,883
27095,1178,887
27100,1178,888
27105,1177,892
27110,1167,899
27115,1175,898
27120,1172,902
27125,1159,903
27130,1164,907
27135,1159,907
27140,1146,906
27145,1163,908
27150,1151,910
27155,1150,910
27160,1145,913
27165,1150,917
27170,1137,912
27175,1139,914
27180,1128,913
27185,1136,914
27190,1130,913
27195,1131,910
27200,1124,917
27205,1128,912
27210,1118,908
27215,1112,906
27220,1120,902
27225,1112,897
27230,1114,896
27235,1112,902
27240,1104,900
27245,1110,897
27250,1094,898
27255,1095,897
27260,1103,891
27265,1100,892
27270,1099,891
27275,1094,887
27280,1088,890
27285,1101,887
27290,1085,883
27295,1082,880
27300,1083,878
27305,1079,877
27310,1074,879
27315,1076,872
27320,1084,871
27325,1073,867
27330,1066,873
27335,1063,871
27340,1067,869
27345,1069,867
27350,1063,866
27355,1055,864
27360,1049,857
27365,1048,856
27370,1048,859
27375,1041,859
27380,1044,857
27385,1033,859
27390,1020,853
27395,1024,852
27400,1025,854
27405,1017,850
27410,1011,851
27415,1002,846
27420,991,848
27425,994,850
27430,979,846
27435,978,845
27440,970,846
27445,973,840
27450,962,840
27455,950,840
27460,948,838
27465,939,838
27470,931,833
27475,924,836
27480,918,829
27485,910,824
27490,903,830
27495,886,826
27500,879,818
27505,872,816
27510,866,817
27515,867,816
27520,859,813
27525,847,806
27530,843,808
27535,827,796
27540,826,801
27545,827,795
27550,806,791
27555,809,783
27560,798,785
27565,791,779
27570,784,774
27575,782,767
27580,784,767
27585,779,765
27590,761,764
27595,773,751
27600,757,746
27605,759,745
27610,754,741
27615,752,731
27620,738,732
27625,740,724
27630,743,721
27635,739,716
27640,748,711
27645,741,704
27650,751,704
27655,757,699
27660,753,698
27665,758,691
27670,766,692
27675,763,687
27680,756,683
27685,762,676
27690,776,669
27695,782,667
27700,781,667
27705,791,663
27710,801,660
27715,805,658
27720,812,658
27725,827,645
27730,833,656
27735,832,655
27740,850,654
27745,849,651
27750,868,655
27755,870,645
27760,875,649
27765,891,644
27770,902,655
27775,910,656
27780,918,654
27785,933,655
27790,948,659
27795,964,657
27800,963,662
27805,980,659
27810,984,654
27815,999,672
27820,1006,671
27825,1024,675
27830,1039,679
27835,1046,685
27840,1057,684
27845,1057,692
27850,1056,700
27855,1073,699
27860,1074,710
27865,1084,716
27870,1107,718
27875,1107,729
27880,1116,728
27885,1124,733
27890,1129,738
27895,1139,752
27900,1146,757
27905,1149,762
27910,1152,768
27915,1159,773
27920,1169,784
27925,1158,782
27930,1165,791
27935,1168,794
27940,1174,803
27945,1177,809
27950,1178,815
27955,1184,822
27960,1181,823
27965,1183,833
27970,1192,844
27975,1188,843
27980,1198,846
27985,1179,850
27990,1192,860
27995,1190,864
28000,1190,866
28005,1181,872
28010,1191,876
28015,1175,880
28020,1181,885
28025,1178,887
28030,1187,882
28035,1173,900
28040,1173,892
28045,1174,897
28050,1165,897
28055,1168,905
28060,1155,904
28065,1160,909
28070,1154,907
28075,1154,909
28080,1153,909
28085,1150,910
28090,1146,912
28095,1137,917
28100,1135,914
28105,1138,910
28110,1128,912
28115,1126,911
28120,1131,911
28125,1127,908
28130,1124,911
28135,1119,905
28140,1124,908
28145,1114,908
28150,1112,905
28155,1111,902
28160,1104,907
28165,1121,906
28170,1104,898
28175,1104,901
28180,1104,897
28185,1093,893
28190,1106,890
28195,1098,894
28200,1102,885
28205,1097,889
28210,1086,884
28215,1086,887
28220,1101,883
28225,1086,880
28230,1077,881
28235,1075,876
28240,1081,875
28245,1069,873
28250,1076,873
28255,1083,871
28260,1074,870
28265,1064,870
28270,1067,867
28275,1070,864
28280,1058,861
28285,1063,865
28290,1058,864
28295,1056,858
28300,1042,859
28305,1043,861
28310,1038,857
28315,1027,863
28320,1031,854
28325,1025,853
28330,1013,854
28335,1020,851
28340,1014,854
28345,1001,851
28350,994,852
28355,985,848
28360,986,852
28365,973,846
28370,968,848
28375,960,842
28380,945,838
28385,945,841
28390,936,839
28395,935,836
28400,935,831
28405,918,831
28410,928,832
28415,906,831
28420,891,830
28425,891,825
28430,879,820
28435,875,819
28440,871,812
28445,847,812
28450,858,813
28455,841,805
28460,838,803
28465,832,794
28470,817,798
28475,823,791
28480,809,792
28485,804,788
28490,798,782
28495,786,783
28500,784,775
28505,770,765
28510,774,766
28515,765,762
28520,772,758
28525,765,748
28530,765,746
28535,758,744
28540,749,740
28545,749,734
28550,740,730
28555,747,729
28560,746,715
28565,742,713
28570,754,711
28575,754,709
28580,744,704
28585,750,705
28590,754,693
28595,763,688
28600,751,682
28605,764,684
28610,762,678
28615,777,672
28620,773,670
28625,787,668
28630,783,664
28635,808,663
28640,792,657
28645,806,661
28650,818,655
28655,816,659
28660,832,654
28665,838,648
28670,845,655
28675,854,649
28680,872,647
28685,880,649
28690,881,644
28695,896,646
28700,908,653
28705,919,653
28710,932,652
28715,931,650
28720,952,660
28725,961,659
28730,971,661
28735,986,661
28740,989,668
28745,999,669
28750,1016,673
28755,1028,674
28760,1029,680
28765,1049,684
28770,1046,692
28775,1062,697
28780,1071,697
28785,1077,699
28790,1084,707
28795,1087,719
28800,1107,723
28805,1115,725
28810,1110,736
28815,1132,736
28820,1126,745
28825,1134,752
28830,1147,753
28835,1147,763
28840,1158,765
28845,1147,772
28850,1168,785
28855,1166,784
28860,1165,793
28865,1172,801
28870,1174,803
28875,1177,812
28880,1184,820
28885,1185,827
28890,1184,826
28895,1183,838
28900,1186,838
28905,1188,850
28910,1185,849
28915,1185,859
28920,1187,866
28925,1172,863
28930,1189,870
28935,1190,876
28940,1195,881
28945,1175,879
28950,1180,888
28955,1170,887
28960,1179,894
28965,1177,896
28970,1179,890
28975,1164,904
28980,1163,901
28985,1165,904
28990,1156,906
28995,1153,905
29000,1161,910
29005,1149,908
29010,1141,912
29015,1149,913
29020,1144,912
29025,1141,906
29030,1146,912
29035,1134,916
29040,1138,908
29045,1138,913
29050,1124,910
29055,1118,913
29060,1122,910
29065,1125,904
29070,1126,909
29075,1109,911
29080,1113,902
29085,1107,905
29090,1112,903
29095,1106,904
29100,1102,898
29105,1102,900
29110,1091,896
29115,1088,895
29120,1094,897
29125,1087,892
29130,1096,890
29135,1096,884
29140,1093,889
29145,1087,877
29150,1090,882
29155,1083,878
29160,1078,875
29165,1082,872
29170,1078,872
29175,1073,871
29180,1072,878
29185,1071,870
29190,1054,873
29195,1064,866
29200,1066,874
29205,1064,868
29210,1055,869
29215,1047,859
29220,1048,860
29225,1045,859
29230,1043,857
29235,1046,854
29240,1035,860
29245,1033,856
29250,1018,852
29255,1024,855
29260,1018,854
29265,1011,854
29270,1012,849
29275,999,847
29280,992,850
29285,980,847
29290,982,849
29295,975,850
29300,964,840
29305,961,843
29310,947,841
29315,947,836
29320,942,837
29325,933,844
29330,927,827
29335,926,830
29340,905,825
29345,890,829
29350,892,829
29355,883,820
29360,876,822
29365,869,812
29370,859,817
29375,849,809
29380,845,809
29385,843,804
29390,835,810
29395,821,799
29400,826,800
29405,810,789
29410,802,792
29415,800,788
29420,800,778
29425,787,776
29430,782,767
29435,772,768
29440,779,759
29445,764,764
29450,768,752
29455,764,752
29460,760,740
29465,749,736
29470,759,735
29475,754,734
29480,757,727
29485,752,718
29490,747,716
29495,744,711
29500,740,705
29505,750,703
29510,751,701
29515,745,693
29520,757,696
29525,756,694
29530,751,683
29535,767,684
29540,765,678
29545,780,671
29550,794,668
29555,785,660
29560,791,664
29565,796,664
29570,805,658
29575,809,655
29580,824,653
29585,822,656
29590,835,654
29595,844,654
29600,854,652
29605,865,657
29610,874,652
29615,874,646
29620,889,652
29625,897,652
29630,913,650
29635,919,655
29640,936,654
29645,943,659
29650,956,660
29655,965,661
29660,967,661
29665,976,662
29670,991,671
29675,1000,667
29680,1016,673
29685,1024,675
29690,1037,676
29695,1038,683
29700,1058,691
29705,1057,699
29710,1073,697
29715,1078,706
29720,1087,713
29725,1102,719
29730,1110,724
29735,1108,734
29740,1124,732
29745,1126,739
29750,1133,746
29755,1140,753
29760,1137,756
29765,1150,767
29770,1169,770
29775,1158,777
29780,1166,782
29785,1169,791
29790,1172,793
29795,1175,803
29800,1178,797
29805,1176,813
29810,1190,821
29815,1182,823
29820,1189,832
29825,1185,837
29830,1184,845
29835,1186,847
29840,1189,853
29845,1190,861
29850,1184,861
29855,1189,871
29860,1187,872
29865,1189,874
29870,1182,876
29875,1176,886
29880,1174,883
29885,1177,890
29890,1184,895
29895,1171,891
29900,1176,893
29905,1174,899
29910,1170,902
29915,1166,904
29920,1159,909
29925,1154,907
29930,1142,905
29935,1150,910
29940,1145,908
29945,1147,909
29950,1140,910
29955,1142,917
29960,1137,911
29965,1137,910
29970,1127,914
29975,1133,916
29980,1123,913
29985,1126,908
29990,1132,907
29995,1126,907
30000,1116,908
30005,1123,905
30010,1117,903
30015,1110,903
30020,1106,905
30025,1100,903
30030,1101,896
30035,1100,893
30040,1103,897
30045,1096,888
30050,1106,890
30055,1089,891
30060,1090,891
30065,1083,885
30070,1090,883
30075,1082,884
30080,1078,881
30085,1075,875
30090,1083,882
30095,1078,877
30100,1073,873
30105,1073,878
30110,1073,874
30115,1072,871
30120,1064,876
30125,1066,870
30130,1055,865
30135,1055,868
30140,1053,869
30145,1057,860
30150,1039,864
30155,1045,856
30160,1037,862
30165,1049,856
30170,1040,862
30175,1038,856
30180,1023,858
30185,1019,850
30190,1013,853
30195,1004,852
30200,1001,846
30205,994,851
30210,985,850
30215,976,850
30220,982,850
30225,974,840
30230,970,843
30235,948,843
30240,949,840
30245,953,837
30250,938,837
30255,932,838
30260,925,836
30265,916,826
30270,928,830
30275,903,829
30280,897,822
30285,885,822
30290,878,818
30295,868,819
30300,854,815
30305,847,816
30310,847,810
30315,829,804
30320,824,801
30325,821,798
30330,823,792
30335,811,789
30340,807,792
30345,793,781
30350,786,783
30355,787,773
30360,781,767
30365,777,769
30370,770,762
30375,760,761
30380,763,749
30385,761,749
30390,755,739
30395,747,740
30400,759,736
30405,744,727
30410,744,727
30415,748,716
30420,741,712
30425,747,710
30430,745,711
30435,747,702
30440,749,701
30445,750,692
30450,762,693
30455,761,688
30460,772,682
30465,763,670
30470,772,676
30475,778,668
30480,784,667
30485,781,662
30490,800,664
30495,798,664
30500,807,660
30505,804,658
30510,815,653
30515,827,651
30520,831,651
30525,846,655
30530,856,650
30535,866,645
30540,877,649
30545,888,648
30550,899,646
30555,910,645
30560,911,651
30565,935,652
30570,939,652
30575,950,657
30580,956,656
30585,970,663
30590,980,658
30595,989,665
30600,996,671
30605,995,674
30610,1015,681
30615,1038,678
30620,1041,684
30625,1051,688
30630,1065,694
30635,1057,695
30640,1076,706
30645,1080,711
30650,1094,712
30655,1106,714
30660,1115,724
30665,1117,729
30670,1122,735
30675,1128,742
30680,1136,751
30685,1153,757
30690,1144,766
30695,1150,769
30700,1160,775
30705,1164,788
30710,1167,783
30715,1169,789
30720,1174,809
30725,1184,806
30730,1184,808
30735,1186,814
30740,1179,816
30745,1193,829
30750,1195,826
30755,1189,839
30760,1186,848
30765,1188,846
30770,1182,853
30775,1185,864
30780,1183,865
30785,1188,871
30790,1172,869
30795,1183,880
30800,1180,879
30805,1178,888
30810,1175,886
30815,1181,892
30820,1174,891
30825,1170,894
30830,1166,897
30835,1169,900
30840,1161,904
30845,1160,907
30850,1158,908
30855,1157,907
30860,1147,914
30865,1157,912
30870,1147,916
30875,1147,912
30880,1143,913
30885,1147,915
30890,1124,913
30895,1129,908
30900,1131,908
30905,1133,916
30910,1118,909
30915,1121,908
30920,1116,909
30925,1117,911
30930,1111,907
30935,1111,900
30940,1108,906
30945,1107,904
30950,1108,904
30955,1106,905
30960,1109,899
30965,1094,891
30970,1092,892
30975,1091,892
30980,1092,896
30985,1085,889
30990,1084,888
30995,1089,882
31000,1089,882
31005,1089,886
31010,1084,885
31015,1079,875
31020,1073,878
31025,1076,878
31030,1078,879
31035,1068,875
31040,1072,875
31045,1073,876
31050,1069,868
31055,1065,874
31060,1069,862
31065,1059,863
31070,1049,855
31075,1047,863
31080,1051,862
31085,1046,859
31090,1036,858
31095,1027,857
31100,1030,858
31105,1031,855
31110,1022,851
31115,1023,849
31120,1018,854
31125,1009,853
31130,998,851
31135,1000,853
31140,989,843
31145,989,844
31150,971,847
31155,966,845
31160,964,841
31165,946,843
31170,950,843
31175,939,836
31180,921,837
31185,917,834
31190,906,830
31195,906,835
31200,902,829
31205,890,821
31210,886,821
31215,886,822
31220,870,812
31225,869,814
31230,859,812
31235,851,810
31240,847,806
31245,825,809
31250,826,795
31255,821,798
31260,815,794
31265,809,786
31270,802,783
31275,787,777
31280,791,777
31285,784,771
31290,767,768
31295,771,764
31300,779,763
31305,756,754
31310,762,748
31315,773,748
31320,750,740
31325,750,741
31330,753,733
31335,754,730
31340,755,723
31345,760,721
31350,749,714
31355,754,707
31360,750,703
31365,751,701
31370,749,704
31375,759,694
31380,756,684
31385,770,686
31390,759,680
31395,776,680
31400,768,672
31405,775,674
31410,774,665
31415,795,668
31420,799,665
31425,805,662
31430,814,658
31435,820,662
31440,832,650
31445,830,654
31450,843,655
31455,845,649
31460,867,651
31465,866,648
31470,871,646
31475,879,649
31480,899,648
31485,910,653
31490,924,657
31495,926,653
31500,943,658
31505,948,655
31510,957,659
31515,969,659
31520,985,663
31525,993,666
31530,1000,670
31535,1019,670
31540,1024,680
31545,1029,685
31550,1038,689
31555,1053,688
31560,1056,704
31565,1066,696
31570,1079,705
31575,1090,710
31580,1103,719
31585,1098,721
31590,1115,731
31595,1124,733
31600,1123,740
31605,1133,744
31610,1148,759
31615,1132,764
31620,1148,760
31625,1157,777
31630,1161,778
31635,1158,779
31640,1172,791
31645,1173,794
31650,1176,800
31655,1182,810
31660,1179,819
31665,1185,818
31670,1191,826
31675,1183,835
31680,1189,835
31685,1180,843
31690,1190,848
31695,1191,853
31700,1181,858
31705,1177,860
31710,1192,868
31715,1174,871
31720,1190,873
31725,1174,879
31730,1179,886
31735,1172,887
31740,1180,888
31745,1175,891
31750,1166,891
31755,1172,899
31760,1160,898
31765,1178,906
31770,1161,907
31775,1164,908
31780,1160,904
31785,1159,912
31790,1154,913
31795,1140,907
31800,1152,905
31805,1153,915
31810,1131,912
31815,1133,914
31820,1138,914
31825,1129,910
31830,1125,913
31835,1127,911
31840,1123,908
31845,1129,911
31850,1126,905
31855,1115,908
31860,1118,905
31865,1125,907
31870,1104,904
31875,1107,898
31880,1102,896
31885,1103,898
31890,1096,899
31895,1110,894
31900,1107,890
31905,1095,889
31910,1091,894
31915,1085,885
31920,1085,887
31925,1082,894
31930,1089,883
31935,1084,881
31940,1081,882
31945,1077,880
31950,1076,882
31955,1074,870
31960,1075,874
31965,1067,876
31970,1067,873
31975,1070,870
31980,1061,872
31985,1056,865
31990,1057,867
31995,1061,861
32000,1052,859
32005,1051,862
32009,1049,860
32015,1036,855
32020,1034,862
32025,1027,855
32030,1030,858
32034,1022,848
32040,1022,855
32045,1022,850
32049,1002,851
32055,1006,850
32060,994,853
32064,994,849
32070,989,844
32075,977,838
32080,970,841
32085,968,844
32090,964,838
32095,947,841
32100,953,841
32104,939,835
32110,931,836
32115,932,831
32119,917,830
32125,897,835
32130,903,828
32134,892,823
32140,884,823
32145,882,817
32150,865,819
32155,859,815
32159,849,815
32165,857,810
32170,828,803
32174,839,800
32180,829,796
32185,814,791
32189,815,791
32195,803,788
32200,805,782
32205,790,776
32210,787,773
32215,774,774
32220,773,771
32225,778,766
32229,768,756
32235,767,749
32240,759,749
32244,749,744
32250,755,743
32255,749,733
32259,748,730
32265,745,727
32270,754,723
32275,747,716
32280,748,715
32284,743,709
32290,755,705
32295,752,697
32299,753,694
32305,753,692
32310,765,684
32314,759,691
32320,775,678
32325,773,681
32330,781,676
32335,782,672
32340,782,668
32345,796,668
32350,795,658
32354,802,658
32360,813,657
32365,833,656
32369,834,652
32375,832,651
32380,852,648
32384,853,650
32390,852,651
32395,871,649
32400,886,651
32405,895,648
32409,901,651
32415,916,651
32420,927,652
32424,937,659
32430,942,661
32435,957,650
32439,960,659
32445,976,659
32450,996,662
32455,994,670
32460,1008,672
32465,1020,677
32470,1026,680
32475,1041,684
32479,1042,690
32485,1054,697
32490,1057,700
32494,1084,703
32500,1083,708
32505,1095,714
32509,1097,718
32515,1114,725
32520,1119,726
32525,1113,737
32530,1126,744
32534,1135,752
32540,1142,757
32545,1147,765
32549,1143,768
32555,1168,775
32560,1172,777
32564,1168,792
32570,1168,789
32575,1169,800
32580,1169,801
32585,1181,813
32590,1188,813
32595,1187,822
32600,1187,828
32604,1188,834
32610,1190,847
32615,1183,845
32619,1188,852
32625,1189,854
32630,1189,860
32634,1196,864
32640,1183,864
32645,1176,872
32650,1183,879
32655,1180,883
32659,1179,887
32665,1174,890
32670,1179,884
32674,1172,898
32680,1167,899
32685,1170,900
32689,1171,899
32695,1174,908
32700,1161,908
32705,1157,903
32710,1141,911
32715,1157,907
32720,1144,911
32725,1158,910
32729,1142,910
32735,1140,916
32740,1142,920
32744,1126,904
32750,1126,910
32755,1132,907
32759,1123,910
32765,1128,910
32770,1123,905
32775,1112,909
32780,1123,906
32785,1123,908
32790,1123,904
32795,1102,906
32800,1105,899
32805,1106,900
32810,1106,902
32815,1103,898
32820,1095,901
32825,1096,892
32830,1101,899
32835,1093,893
32840,1099,886
32845,1095,888
32850,1097,881
32855,1088,887
32860,1096,878
32865,1083,882
32870,1087,878
32875,1086,880
32880,1084,874
32885,1074,876
32890,1083,877
32895,1063,873
32900,1061,872
32905,1065,866
32910,1065,866
32915,1064,868
32920,1055,862
32925,1054,868
32930,1048,864
32935,1043,858
32940,1046,858
32945,1041,859
32950,1027,852
32955,1036,857
32960,1027,853
32965,1028,853
32970,1019,853
32975,1009,849
32980,1009,850
32985,1002,845
32990,994,849
32995,987,845
33000,984,848
33005,969,852
33010,973,838
33015,962,839
33020,957,844
33025,948,841
33030,940,843
33035,935,836
33040,935,832
33045,922,834
33050,912,827
33055,898,831
33060,896,829
33065,884,824
33070,884,820
33075,873,816
33080,866,813
33085,852,813
33090,853,811
33095,848,814
33100,847,805
33105,832,797
33110,825,802
33115,819,798
33120,803,788
33125,812,785
33130,794,783
33135,784,777
33140,778,774
33145,777,768
33150,773,765
33155,770,760
33160,770,753
33165,766,751
33170,757,744
33175,759,744
33180,764,732
33185,760,737
33190,738,731
33195,754,722
33200,741,726
33205,741,714
33210,750,710
33215,751,706
33220,755,703
33225,760,695
33230,746,692
33235,756,693
33240,758,683
33245,762,685
33250,782,675
33255,770,676
33260,793,667
33265,778,671
33270,794,663
33275,792,666
33280,802,665
33285,808,663
33290,817,656
33295,828,656
33300,827,651
33305,848,654
33310,851,649
33315,855,647
33320,871,647
33325,884,655
33330,894,653
33335,896,650
33340,908,648
33345,924,658
33350,923,648
33355,938,651
33360,951,654
33365,955,662
33370,967,665
33375,979,667
33380,996,670
33385,1004,664
33390,1017,676
33395,1026,680
33400,1027,679
33405,1041,692
33410,1051,693
33415,1068,697
33420,1062,704
33425,1082,702
33430,1089,714
33435,1094,715
33440,1094,721
33445,1110,725
33450,1113,733
33455,1125,738
33460,1123,741
33465,1133,750
33470,1144,758
33475,1139,765
33480,1163,769
33485,1154,779
33490,1168,782
33495,1166,790
33500,1172,796
33505,1164,801
33510,1164,804
33515,1177,813
33520,1175,815
33525,1183,828
33530,1191,824
33535,1180,832
33540,1191,842
33545,1186,849
33550,1200,856
33555,1188,859
33560,1184,860
33565,1189,864
33570,1182,875
33575,1184,875
33580,1182,877
33585,1185,887
33590,1182,881
33595,1171,892
33600,1180,892
33605,1181,894
33610,1164,897
33615,1171,898
33620,1164,905
33625,1162,903
33630,1163,906
33635,1161,908
33640,1157,907
33645,1150,908
33650,1147,908
33655,1141,914
33660,1138,912
33665,1139,908
33670,1133,914
33675,1138,916
33680,1141,909
33685,1128,907
33690,1128,917
33695,1131,910
33700,1126,911
33705,1115,913
33710,1122,908
33715,1117,911
33720,1115,907
33725,1107,906
33730,1113,904
33735,1103,899
33740,1101,899
33745,1106,897
33750,1108,891
33755,1095,889
33760,1098,892
33765,1092,889
33770,1092,895
33775,1090,890
33780,1093,883
33785,1085,889
33790,1087,879
33795,1086,879
33800,1073,880
33805,1080,875
33810,1077,875
33815,1063,878
33820,1072,871
33825,1074,872
33830,1072,876
33835,1066,869
33840,1051,866
33845,1061,866
33850,1060,866
33855,1056,861
33860,1055,858
33865,1047,862
33870,1040,863
33875,1043,856
33880,1032,860
33885,1024,853
33890,1024,858
33895,1014,855
33900,1017,852
33905,1012,858
33910,1005,853
33915,991,852
33920,991,853
33925,989,851
33930,980,846
33935,977,847
33940,964,841
33945,956,846
33950,958,841
33955,937,834
33960,933,833
33965,936,833
33970,932,833
33975,922,828
33980,904,828
33985,888,831
33990,896,824
33995,882,822
34000,871,819
34005,872,817
34010,865,814
34015,856,808
34020,845,811
34025,835,811
34030,836,799
34035,832,797
34040,817,799
34045,811,792
34050,800,783
34055,800,779
34060,794,787
34065,794,775
34070,792,773
34075,779,771
34080,772,761
34085,774,763
34090,762,753
34095,765,749
34100,754,741
34105,755,736
34110,743,736
34115,755,727
34120,756,723
34125,747,720
34130,751,723
34135,737,721
34140,745,708
34145,751,703
34150,756,700
34155,743,696
34160,752,696
34165,759,690
34170,763,687
34175,767,679
34180,771,678
34185,772,674
34190,776,670
34195,786,664
34200,788,665
34205,800,662
34210,799,658
34215,820,659
34220,823,650
34225,826,654
34230,833,653
34235,841,645
34240,852,648
34245,857,650
34250,876,648
34255,873,650
34260,891,647
34265,900,651
34270,910,652
34275,916,652
34280,932,654
34285,943,659
34290,952,655
34295,971,658
34300,971,668
34305,986,662
34310,989,670
34315,1001,670
34320,1018,676
34325,1037,681
34330,1032,683
34335,1044,690
34340,1060,695
34345,1067,692
34350,1066,702
34355,1083,705
34360,1095,716
34365,1090,716
34370,1110,720
34375,1115,733
34380,1125,734
34385,1127,741
34390,1143,752
34395,1144,754
34400,1152,759
34405,1152,768
34410,1156,777
34415,1162,777
34420,1170,793
34425,1163,795
34430,1178,798
34435,1177,810
34440,1176,809
34445,1177,814
34450,1175,830
34455,1188,828
34460,1188,835
34465,1190,837
34470,1196,847
34475,1192,846
34480,1180,847
34485,1183,857
34490,1188,869
34495,1192,866
34500,1183,876
34505,1187,877
34510,1189,877
34515,1179,882
34520,1185,892
34525,1176,890
34530,1174,890
34535,1169,900
34540,1167,904
34545,1161,901
34550,1173,908
34555,1156,910
34560,1158,907
34565,1152,910
34570,1156,910
34575,1150,915
34580,1147,911
34585,1156,912
34590,1143,913
34595,1135,913
34600,1146,908
34605,1134,906
34610,1128,912
34615,1126,910
34620,1119,908
34625,1129,912
34630,1123,912
34635,1130,912
34640,1112,904
34645,1111,906
34650,1111,904
34655,1108,901
34660,1105,901
34665,1098,895
34670,1099,895
34675,1097,900
34680,1093,894
34685,1101,891
34690,1097,888
34695,1101,884
34700,1091,891
34705,1090,886
34710,1086,884
34715,1088,882
34720,1088,883
34725,1087,881
34730,1080,881
34735,1080,873
34740,1079,870
34745,1070,874
34750,1072,873
34755,1063,868
34760,1069,874
34765,1058,866
34770,1071,862
34775,1066,864
34780,1059,863
34785,1047,864
34790,1052,860
34795,1052,858
34800,1041,860
34805,1038,863
34810,1023,857
34815,1035,861
34820,1024,854
34825,1012,857
34830,1015,847
34835,1010,855
34840,1011,850
34845,990,854
34850,989,845
34855,982,849
34860,972,845
34865,971,843
34870,963,840
34875,956,839
34880,953,836
34885,946,839
34890,934,834
34895,922,834
34900,918,832
34905,904,834
34910,911,829
34915,891,833
34920,895,826
34925,883,824
34930,872,815
34935,868,812
34940,871,816
34945,856,809
34950,837,806
34955,837,804
34960,836,796
34965,827,798
34970,808,788
34975,806,789
34980,812,783
34985,800,787
34990,786,778
34995,783,772
35000,779,771
35005,778,768
35010,772,761
35015,763,757
35020,753,750
35025,768,744
35030,761,745
35035,753,735
35040,743,733
35045,745,732
35050,748,724
35055,744,717
35060,739,715
35065,754,709
35070,755,709
35075,746,702
35080,763,698
35085,744,699
35090,760,688
35095,762,688
35100,762,683
35105,767,678
35110,773,675
35115,776,672
35120,781,668
35125,794,663
35130,788,669
35135,799,663
35140,815,658
35145,813,658
35150,826,655
35155,825,652
35160,837,650
35165,841,652
35170,854,651
35175,875,648
35180,882,648
35185,879,648
35190,901,651
35195,909,646
35200,921,650
35205,925,652
35210,934,652
35215,941,658
35220,961,662
35225,969,655
35230,986,667
35235,994,670
35240,1001,676
35245,1012,668
35250,1027,675
35255,1033,684
35260,1040,689
35265,1047,689
35270,1067,697
35275,1065,700
35280,1067,706
35285,1090,705
35290,1100,716
35295,1106,722
35300,1106,724
35305,1103,728
35310,1126,739
35315,1134,738
35320,1141,750
35325,1140,758
35330,1145,755
35335,1147,771
35340,1159,773
35345,1166,781
35350,1157,787
35355,1171,793
35360,1181,804
35365,1180,803
35370,1170,813
35375,1192,817
35380,1182,819
35385,1183,837
35390,1184,838
35395,1188,838
35400,1179,848
35405,1194,849
35410,1192,854
35415,1192,863
35420,1192,863
35425,1194,864
35430,1182,869
35435,1185,878
35440,1185,881
35445,1174,891
35450,1182,884
35455,1176,893
35460,1170,891
35465,1166,898
35470,1172,901
35475,1170,903
35480,1170,905
35485,1163,903
35490,1155,907
35495,1153,910
35500,1154,906
35505,1146,908
35510,1154,911
35515,1137,915
35520,1132,914
35525,1135,907
35530,1124,907
35535,1129,914
35540,1125,919
35545,1130,913
35550,1118,909
35555,1125,910
35560,1122,915
35565,1121,913
35570,1121,910
35575,1118,906
35580,1111,900
35585,1114,901
35590,1110,900
35595,1107,895
35600,1102,892
35605,1102,899
35610,1099,896
35615,1097,888
35620,1091,889
35625,1095,887
35630,1094,885
35635,1089,889
35640,1086,882
35645,1076,880
35650,1089,883
35655,1080,876
35660,1079,877
35665,1079,875
35670,1081,875
35675,1072,867
35680,1067,872
35685,1072,868
35690,1066,866
35695,1062,867
35700,1064,867
35705,1063,863
35710,1053,863
35715,1050,860
35720,1040,860
35725,1047,856
35730,1042,863
35735,1037,852
35740,1031,859
35745,1031,857
35750,1024,849
35755,1014,853
35760,1017,852
35765,1011,851
35770,999,852
35775,990,847
35780,986,847
35785,974,847
35790,976,850
35795,971,844
35800,970,840
35805,956,837
35810,953,840
35815,946,839
35820,934,839
35825,933,832
35830,916,836
35835,917,828
35840,902,832
35845,890,826
35850,877,820
35855,885,821
35860,876,820
35865,858,809
35870,853,810
35875,853,802
35880,836,804
35885,830,808
35890,833,797
35895,825,797
35900,816,797
35905,810,786
35910,802,783
35915,803,786
35920,788,779
35925,789,772
35930,780,766
35935,777,762
35940,767,753
35945,768,757
35950,764,751
35955,753,747
35960,751,731
35965,746,738
35970,741,733
35975,743,730
35980,746,725
35985,749,719
35990,752,717
35995,744,709
36000,753,702
36005,757,702
36010,760,695
36015,757,697
36020,756,687
36025,758,682
36030,767,682
36035,763,675
36040,768,671
36045,791,667
36050,777,666
36055,789,658
36060,791,662
36065,799,662
36070,811,657
36075,819,651
36080,823,651
36085,839,650
36090,852,652
36095,847,650
36100,859,650
36105,870,645
36110,881,645
36115,890,650
36120,900,649
36125,901,654
36130,920,655
36135,924,654
36140,940,652
36145,941,657
36150,965,658
36155,975,661
36160,985,661
36165,996,665
36170,996,674
36175,1013,675
36180,1030,679
36185,1034,683
36190,1036,683
36195,1061,695
36200,1055,698
36205,1071,705
36210,1074,704
36215,1092,713
36220,1099,710
36225,1106,717
36230,1115,728
36235,1114,732
36240,1128,736
36245,1134,744
36250,1144,749
36255,1142,759
36260,1140,763
36265,1156,772
36270,1152,783
36275,1168,787
36280,1167,793
36285,1164,797
36290,1186,804
36295,1172,805
36300,1189,813
36305,1184,825
36310,1187,827
36315,1187,832
36320,1197,839
36325,1182,840
36330,1188,844
36335,1185,857
36340,1191,858
36345,1189,862
36350,1185,864
36355,1180,874
36360,1186,869
36365,1178,877
36370,1183,888
36375,1178,884
36380,1178,893
36385,1177,893
36390,1172,893
36395,1170,901
36400,1162,897
36405,1163,903
36410,1154,908
36415,1159,907
36420,1152,909
36425,1164,907
36430,1154,904
36435,1156,911
36440,1142,907
36445,1140,908
36450,1132,914
36455,1140,913
36460,1134,916
36465,1132,909
36470,1131,909
36475,1133,909
36480,1132,910
36485,1120,910
36490,1119,907
36495,1115,907
36500,1114,902
36505,1103,905
36510,1110,901
36515,1101,898
36520,1094,899
36525,1094,895
36530,1109,897
36535,1101,894
36540,1101,892
36545,1092,890
36550,1099,892
36555,1094,890
36560,1091,887
36565,1088,885
36570,1093,887
36575,1085,885
36580,1084,887
36585,1079,873
36590,1084,877
36595,1077,878
36600,1073,872
36605,1068,867
36610,1065,871
36615,1067,871
36620,1065,868
36625,1064,863
36630,1062,867
36635,1057,864
36640,1054,867
36645,1047,866
36650,1049,859
36655,1041,864
36660,1043,858
36665,1038,859
36670,1034,857
36675,1026,856
36680,1024,854
36685,1015,852
36690,1001,852
36695,1005,850
36700,982,852
36705,991,852
36710,984,847
36715,974,845
36720,982,845
36725,966,844
36730,953,842
36735,951,841
36740,949,838
36745,933,840
36750,928,833
36755,927,837
36760,908,829
36765,912,830
36770,897,827
36775,887,827
36780,884,817
36785,865,819
36790,871,817
36795,863,813
36800,850,806
36805,842,808
36810,839,800
36815,826,798
36820,822,800
36825,813,789
36830,807,793
36835,808,788
36840,794,782
36845,794,778
36850,791,771
36855,783,768
36860,775,763
36865,766,759
36870,763,764
36875,759,751
36880,758,749
36885,760,743
36890,753,739
36895,755,729
36900,758,733
36905,752,724
36910,748,722
36915,743,717
36920,746,710
36925,742,705
36930,752,700
36935,755,706
36940,751,692
36945,757,693
36950,756,688
36955,756,685
36960,756,680
36965,767,671
36970,779,673
36975,781,671
36980,782,667
36985,800,666
36990,804,655
36995,807,661
37000,814,656
37005,818,651
37010,829,654
37015,841,652
37020,838,649
37025,855,647
37030,871,649
37035,873,649
37040,887,649
37045,899,652
37050,903,650
37055,915,650
37060,920,656
37065,934,654
37070,951,653
37075,963,660
37080,965,659
37085,976,663
37090,985,668
37095,1000,665
37100,999,674
37105,1021,680
37110,1032,678
37115,1032,684
37120,1043,684
37125,1057,699
37130,1067,701
37135,1078,702
37140,1085,707
37145,1094,708
37150,1096,717
37155,1104,724
37160,1112,731
37165,1131,737
37170,1133,744
37175,1131,749
37180,1147,755
37185,1151,764
37190,1145,764
37195,1150,768
37200,1158,784
37205,1170,783
37210,1166,795
37215,1177,793
37220,1185,807
37225,1190,810
37230,1175,819
37235,1184,822
37240,1191,826
37245,1184,838
37250,1184,837
37255,1192,842
37260,1192,852
37265,1187,854
37270,1189,859
37275,1177,867
37280,1193,867
37285,1184,867
37290,1184,877
37295,1185,881
37300,1181,884
37305,1176,885
37310,1171,892
37315,1174,893
37320,1178,896
37325,1166,898
37330,1163,900
37335,1160,908
37340,1161,902
37345,1154,908
37350,1151,907
37355,1154,909
37360,1151,912
37365,1138,913
37370,1134,914
37375,1144,911
37380,1139,908
37385,1143,910
37390,1133,913
37395,1133,911
37400,1126,908
37405,1126,910
37410,1127,909
37415,1123,904
37420,1118,910
37425,1112,903
37430,1116,908
37435,1110,904
37440,1108,905
37445,1100,905
37450,1104,896
37455,1111,896
37460,1104,898
37465,1095,893
37470,1104,899
37475,1100,890
37480,1099,889
37485,1088,883
37490,1089,887
37495,1105,882
37500,1085,887
37505,1085,877
37510,1082,875
37515,1079,880
37520,1071,877
37525,1073,879
37530,1065,871
37535,1079,872
37540,1067,867
37545,1064,870
37550,1072,875
37555,1059,865
37560,1059,868
37565,1042,861
37570,1054,857
37575,1059,858
37580,1047,864
37585,1048,858
37590,1033,854
37595,1032,861
37600,1027,854
37605,1016,857
37610,1012,855
37615,1013,852
37620,1011,855
37625,997,847
37630,990,849
37635,989,845
37640,978,847
37645,970,841
37650,977,840
37655,961,841
37660,951,842
37665,952,843
37670,936,836
37675,936,837
37680,921,833
37685,923,833
37690,907,833
37695,902,830
37700,893,829
37705,886,817
37710,877,821
37715,872,818
37720,858,812
37725,854,812
37730,847,805
37735,849,803
37740,834,801
37745,820,808
37750,824,798
37755,810,796
37760,809,791
37765,799,788
37770,802,784
37775,788,782
37780,785,779
37785,781,770
37790,778,767
37795,763,762
37800,762,756
37805,758,751
37810,762,742
37815,757,740
37820,749,739
37825,753,735
37830,748,729
37835,762,724
37840,746,718
37845,741,713
37850,744,711
37855,752,702
37860,741,700
37865,748,699
37870,755,691
37875,750,691
37880,762,688
37885,768,681
37890,775,675
37895,769,671
37900,779,672
37905,778,669
37910,795,665
37915,798,655
37920,795,660
37925,814,654
37930,817,657
37935,825,651
37940,832,654
37945,850,651
37950,850,649
37955,870,651
37960,866,652
37965,879,654
37970,877,646
37975,898,652
37980,906,650
37985,923,648
37990,938,653
37995,936,652
38000,945,658
38005,970,659
38010,964,664
38015,982,665
38020,995,665
38025,1001,670
38030,1008,674
38035,1026,680
38040,1029,679
38045,1042,689
38050,1056,688
38055,1071,696
38060,1067,704
38065,1085,703
38070,1083,715
38075,1100,719
38080,1106,725
38085,1122,729
38090,1106,731
38095,1123,738
38100,1131,745
38105,1143,748
38110,1152,760
38115,1154,765
38120,1161,773
38125,1151,776
38130,1161,786
38135,1170,784
38140,1168,795
38145,1172,799
38150,1179,807
38155,1187,811
38160,1182,817
38165,1171,825
38170,1186,829
38175,1192,842
38180,1178,841
38185,1185,847
38190,1186,852
38195,1202,857
38200,1188,862
38205,1194,871
38210,1183,870
38215,1195,871
38220,1185,879
38225,1188,881
38230,1180,889
38235,1178,892
38240,1182,892
38245,1172,896
38250,1172,901
38255,1167,900
38260,1163,901
38265,1159,905
38270,1161,906
38275,1155,905
38280,1155,905
38285,1156,905
38290,1158,915
38295,1148,911
38300,1141,915
38305,1137,913
38310,1148,911
38315,1132,912
38320,1131,910
38325,1138,916
38330,1122,912
38335,1129,913
38340,1123,913
38345,1116,902
38350,1117,905
38355,1116,908
38360,1111,905
38365,1108,904
38370,1108,899
38375,1097,901
38380,1106,902
38385,1098,900
38390,1108,897
38395,1104,893
38400,1105,896
38405,1105,889
38410,1094,891
38415,1088,888
38420,1097,886
38425,1085,883
38430,1075,885
38435,1080,880
38440,1074,877
38445,1069,877
38450,1078,874
38455,1076,867
38460,1067,874
38465,1075,872
38470,1069,867
38475,1064,864
38480,1051,873
38485,1060,865
38490,1049,870
38495,1048,867
38500,1051,858
38505,1047,859
38510,1040,862
38515,1030,856
38520,1030,852
38525,1021,856
38530,1030,858
38535,1019,851
38540,999,852
38545,1008,849
38550,1007,854
38555,999,843
38560,989,850
38565,987,853
38570,978,844
38575,976,842
38580,965,842
38585,961,844
38590,953,844
38595,955,835
38600,940,839
38605,931,833
38610,918,833
38615,911,833
38620,912,832
38625,901,834
38630,897,825
38635,880,823
38640,877,821
38645,868,820
38650,854,817
38655,850,809
38660,851,808
38665,838,802
38670,841,801
38675,834,798
38680,815,796
38685,819,793
38690,799,787
38695,804,786
38700,792,784
38705,783,776
38710,778,773
38715,784,768
38720,763,761
38725,778,759
38730,767,752
38735,760,749
38740,762,748
38745,756,736
38750,761,737
38755,751,730
38760,741,726
38765,745,722
38770,748,717
38775,747,714
38780,744,708
38785,755,701
38790,755,702
38795,753,698
38800,762,690
38805,759,689
38810,772,681
38815,781,677
38820,759,674
38825,767,677
38830,774,671
38835,779,667
38840,789,661
38845,802,662
38850,804,659
38855,817,656
38860,815,653
38865,822,654
38870,834,650
38875,849,651
38880,857,651
38885,868,650
38890,875,648
38895,887,653
38900,905,655
38905,896,654
38910,904,651
38915,938,653
38920,943,657
38925,945,653
38930,957,662
38935,966,655
38940,972,662
38945,989,666
38950,1007,669
38955,1004,671
38960,1019,673
38965,1034,681
38970,1027,681
38975,1045,688
38980,1058,694
38985,1068,700
38990,1074,701
38995,1074,711
39000,1098,714
39005,1090,718
39010,1095,723
39015,1106,733
39020,1132,729
39025,1133,741
39030,1133,747
39035,1138,756
39040,1155,769
39045,1150,762
39050,1153,772
39055,1163,779
39060,1164,791
39065,1167,792
39070,1169,798
39075,1179,803
39080,1182,804
39085,1186,814
39090,1179,817
39095,1186,826
39100,1179,832
39105,1184,843
39110,1191,842
39115,1195,848
39120,1184,851
39125,1186,854
39130,1189,863
39135,1185,870
39140,1184,869
39145,1190,872
39150,1175,882
39155,1184,881
39160,1174,892
39165,1175,888
39170,1176,896
39175,1181,893
39180,1168,902
39185,1171,905
39190,1172,906
39195,1173,906
39200,1158,912
39205,1163,905
39210,1154,910
39215,1154,908
39220,1140,910
39225,1147,908
39230,1138,913
39235,1140,917
39240,1130,908
39245,1127,917
39250,1141,912
39255,1127,910
39260,1126,912
39265,1123,913
39270,1115,903
39275,1112,909
39280,1109,907
39285,1123,904
39290,1105,908
39295,1113,899
39300,1102,903
39305,1109,896
39310,1100,896
39315,1110,893
39320,1097,895
39325,1096,896
39330,1094,894
39335,1095,893
39340,1092,889
39345,1092,887
39350,1088,881
39355,1094,890
39360,1082,879
39365,1079,883
39370,1081,882
39375,1069,876
39380,1078,872
39385,1074,875
39390,1070,872
39395,1076,873
39400,1066,868
39405,1063,869
39410,1056,868
39415,1060,865
39420,1049,858
39425,1050,866
39430,1045,861
39435,1047,866
39440,1040,861
39445,1040,860
39450,1029,855
39455,1035,853
39460,1030,854
39465,1020,852
39470,1008,851
39475,999,851
39480,985,850
39485,1000,840
39490,985,849
39495,988,851
39500,979,850
39505,972,844
39510,961,844
39515,956,839
39520,958,842
39525,941,840
39530,934,833
39535,924,833
39540,916,830
39545,904,827
39550,908,830
39555,900,827
39560,898,825
39565,883,825
39570,874,820
39575,868,813
39580,863,815
39585,853,804
39590,845,806
39595,842,805
39600,833,794
39605,830,798
39610,808,794
39615,823,788
39620,804,788
39625,791,782
39630,784,779
39635,782,776
39640,776,762
39645,776,765
39650,777,765
39655,769,754
39660,761,754
39665,753,748
39670,748,746
39675,750,740
39680,752,735
39685,751,729
39690,749,722
39695,745,721
39700,751,712
39705,757,711
39710,744,710
39715,752,699
39720,752,699
39725,749,697
39730,755,691
39735,757,687
39740,764,687
39745,771,682
39750,771,674
39755,779,667
39760,780,670
39765,781,662
39770,798,661
39775,796,664
39780,817,657
39785,822,653
39790,828,655
39795,832,651
39800,842,648
39805,850,654
39810,864,651
39815,864,648
39820,876,654
39825,889,650
39830,892,649
39835,908,651
39840,926,654
39845,922,645
39850,942,654
39855,943,656
39860,965,659
39865,976,657
39870,981,665
39875,997,665
39880,1003,672
39885,1007,676
39890,1013,683
39895,1034,682
39900,1053,689
39905,1049,690
39910,1058,699
39915,1059,700
39920,1080,703
39925,1084,710
39930,1099,716
39935,1099,722
39940,1107,729
39945,1113,730
39950,1121,742
39955,1131,750
39960,1134,745
39965,1142,754
39970,1148,763
39975,1160,770
39980,1159,770
39985,1167,783
39990,1164,785
39995,1162,794
40000,1171,799
40005,1174,806
40010,1179,811
40015,1184,816
40020,1184,823
40025,1185,828
40030,1185,838
40035,1185,841
40040,1189,848
40045,1190,848
40050,1192,856
40055,1183,858
40060,1184,863
40065,1183,866
40070,1184,874
40075,1175,880
40080,1183,881
40085,1180,883
40090,1184,889
40095,1174,891
40100,1178,893
40105,1165,899
40110,1170,896
40115,1165,901
40120,1162,899
40125,1159,903
40130,1159,911
40135,1155,905
40140,1148,906
40145,1156,911
40150,1147,910
40155,1145,918
40160,1135,917
40165,1134,915
40170,1143,915
40175,1138,909
40180,1136,914
40185,1120,911
40190,1122,905
40195,1126,902
40200,1112,913
40205,1111,912
40210,1118,903
40215,1107,904
40220,1109,906
40225,1105,901
40230,1109,904
40235,1106,903
40240,1106,893
40245,1106,895
40250,1104,897
40255,1096,892
40260,1100,892
40265,1099,889
40270,1089,890
40275,1090,887
40280,1090,886
40285,1090,879
40290,1092,882
40295,1079,875
40300,1077,881
40305,1072,878
40310,1071,877
40315,1076,876
40320,1069,870
40325,1063,873
40330,1069,869
40335,1067,868
40340,1052,862
40345,1060,861
40350,1053,868
40355,1051,859
40360,1039,859
40365,1043,863
40370,1040,862
40375,1036,856
40380,1021,861
40385,1023,853
40390,1020,854
40395,1022,850
40400,1016,853
40405,998,851
40410,1002,846
40415,995,849
40420,983,850
40425,977,846
40430,969,850
40435,971,843
40440,966,840
40445,957,843
40450,950,838
40455,935,834
40460,931,836
40465,934,832
40470,919,827
40475,907,830
40480,902,828
40485,894,817
40490,883,826
40495,875,821
40500,871,818
40505,870,815
40510,854,806
40515,852,809
40520,838,805
40525,842,805
40530,827,798
40535,819,792
40540,814,790
40545,797,789
40550,803,784
40555,794,782
40560,791,777
40565,788,770
40570,774,774
40575,775,768
40580,771,761
40585,768,754
40590,765,751
40595,759,750
40600,757,736
40605,751,739
40610,747,734
40615,743,727
40620,743,720
40625,748,713
40630,752,709
40635,750,710
40640,746,704
40645,754,702
40650,749,700
40655,757,691
40660,756,692
40665,763,682
40670,765,684
40675,775,675
40680,785,676
40685,777,670
40690,782,662
40695,783,665
40700,793,662
40705,803,656
40710,808,660
40715,826,656
40720,836,655
40725,833,654
40730,849,649
40735,852,651
40740,868,649
40745,875,651
40750,880,646
40755,892,647
40760,906,652
40765,907,653
40770,925,647
40775,933,652
40780,942,652
40785,949,658
40790,959,655
40795,968,657
40800,987,666
40805,987,669
40810,1004,671
40815,1018,677
40820,1035,675
40825,1035,680
40830,1041,687
40835,1053,695
40840,1073,697
40845,1068,697
40850,1080,707
40855,1092,713
40860,1099,718
40865,1101,728
40870,1114,728
40875,1122,737
40880,1125,738
40885,1127,745
40890,1138,753
40895,1148,764
40900,1141,767
40905,1154,770
40910,1157,777
40915,1161,783
40920,1167,792
40925,1169,796
40930,1169,793
40935,1176,809
40940,1183,811
40945,1192,822
40950,1176,828
40955,1181,836
40960,1196,839
40965,1185,844
40970,1190,850
40975,1183,853
40980,1194,859
40985,1187,863
40990,1187,870
40995,1181,864
41000,1179,872
41005,1183,879
41010,1178,887
41015,1183,889
41020,1187,888
41025,1174,890
41030,1174,897
41035,1169,900
41040,1168,904
41045,1171,902
41050,1158,902
41055,1164,909
41060,1157,907
41065,1155,909
41070,1145,915
41075,1154,907
41080,1147,909
41085,1149,909
41090,1150,913
41095,1134,914
41100,1132,907
41105,1128,911
41110,1131,917
41115,1123,912
41120,1125,911
41125,1117,904
41130,1122,912
41135,1109,906
41140,1104,910
41145,1112,902
41150,1108,902
41155,1108,904
41160,1094,901
41165,1099,897
41170,1103,899
41175,1106,896
41180,1099,893
41185,1094,890
41190,1111,892
41195,1095,890
41200,1099,882
41205,1084,880
41210,1089,884
41215,1073,882
41220,1082,879
41225,1091,877
41230,1078,880
41235,1072,877
41240,1074,881
41245,1069,881
41250,1062,872
41255,1063,876
41260,1065,873
41265,1064,863
41270,1053,862
41275,1055,863
41280,1055,863
41285,1048,860
41290,1046,860
41295,1037,863
41300,1032,861
41305,1040,863
41310,1037,852
41315,1031,850
41320,1016,855
41325,1017,849
41330,1008,848
41335,1006,846
41340,998,849
41345,983,847
41350,975,849
41355,972,847
41360,976,845
41365,965,846
41370,948,841
41375,955,841
41380,945,844
41385,940,838
41390,937,836
41395,912,833
41400,928,830
41405,905,828
41410,909,823
41415,887,829
41420,886,828
41425,868,823
41430,859,814
41435,861,814
41440,848,816
41445,848,813
41450,831,802
41455,824,803
41460,819,800
41465,813,793
41470,814,793
41475,802,787
41480,798,778
41485,799,779
41490,791,770
41495,789,769
41500,774,767
41505,773,762
41510,762,756
41515,759,749
41520,756,749
41525,763,747
41530,753,735
41535,751,734
41540,756,729
41545,741,726
41550,744,721
41555,753,713
41560,742,708
41565,750,708
41570,750,703
41575,746,696
41580,760,695
41585,761,687
41590,759,685
41595,757,681
41600,758,683
41605,766,674
41610,780,671
41615,775,665
41620,777,666
41625,805,660
41630,796,664
41635,805,657
41640,813,661
41645,817,653
41650,830,650
41655,839,649
41660,840,653
41665,853,648
41670,864,654
41675,884,650
41680,879,647
41685,890,648
41690,908,652
41695,915,654
41700,919,650
41705,931,659
41710,951,658
41715,958,662
41720,966,660
41725,978,665
41730,988,666
41735,988,668
41740,1010,675
41745,1020,670
41750,1020,678
41755,1036,690
41760,1047,688
41765,1062,695
41770,1061,706
41775,1078,701
41780,1082,713
41785,1087,711
41790,1100,722
41795,1120,723
41800,1122,733
41805,1125,734
41810,1127,745
41815,1133,743
41820,1140,754
41825,1145,758
41830,1146,768
41835,1150,774
41840,1158,778
41845,1174,782
41850,1169,793
41855,1173,803
41860,1176,807
41865,1187,809
41870,1178,813
41875,1182,825
41880,1192,830
41885,1183,833
41890,1185,842
41895,1192,846
41900,1186,851
41905,1190,857
41910,1192,864
41915,1188,870
41920,1183,868
